Oct. 8, 2019   15:22:49
Cyclic Voltammetry
File: cv_qnal_re2_beautiful
Data Source:  Experiment
Instrument Model:  CHI760E
Data Proc:  Smoothing
Header: 
Note: 

Init E (V) = 0
High E (V) = 0.8
Low E (V) = -1.2
Init P/N = P
Scan Rate (V/s) = 0.5
Segment = 6
Sample Interval (V) = 0.01
Quiet Time (sec) = 2
Sensitivity (A/V) = 1e-4

Segment 1:

Segment 2:
Ep = -0.705V
ip = -1.972e-4A
Ah = -3.346e-5C

Segment 3:
Ep = -0.605V
ip = 1.344e-4A
Ah = 2.152e-5C

Ep = 0.195V
ip = 1.107e-4A
Ah = 2.117e-5C

Segment 4:
Ep = -0.715V
ip = -1.816e-4A
Ah = -3.354e-5C

Segment 5:
Ep = -0.605V
ip = 1.140e-4A
Ah = 1.786e-5C

Ep = 0.195V
ip = 7.532e-5A
Ah = 1.539e-5C

Segment 6:
Ep = 0.095V
ip = -2.302e-6A
Ah = -5.709e-7C

Ep = -0.715V
ip = -1.607e-4A
Ah = -2.841e-5C

Potential/V	Current/A

0.005	1.129e-6	2.258e-8
0.015	1.155e-6	4.567e-8
0.025	1.183e-6	6.934e-8
0.035	1.215e-6	9.364e-8
0.045	1.252e-6	1.187e-7
0.055	1.290e-6	1.445e-7
0.065	1.327e-6	1.710e-7
0.075	1.364e-6	1.983e-7
0.085	1.403e-6	2.263e-7
0.095	1.443e-6	2.552e-7
0.105	1.483e-6	2.848e-7
0.115	1.525e-6	3.153e-7
0.125	1.567e-6	3.467e-7
0.135	1.610e-6	3.789e-7
0.145	1.653e-6	4.119e-7
0.155	1.701e-6	4.459e-7
0.165	1.750e-6	4.809e-7
0.175	1.802e-6	5.170e-7
0.185	1.855e-6	5.541e-7
0.195	1.908e-6	5.923e-7
0.205	1.960e-6	6.315e-7
0.215	2.014e-6	6.717e-7
0.225	2.070e-6	7.132e-7
0.235	2.128e-6	7.557e-7
0.245	2.187e-6	7.994e-7
0.255	2.251e-6	8.445e-7
0.265	2.316e-6	8.908e-7
0.275	2.382e-6	9.384e-7
0.285	2.449e-6	9.874e-7
0.295	2.516e-6	1.038e-6
0.305	2.583e-6	1.089e-6
0.315	2.656e-6	1.143e-6
0.325	2.731e-6	1.197e-6
0.335	2.808e-6	1.253e-6
0.345	2.888e-6	1.311e-6
0.355	2.969e-6	1.370e-6
0.365	3.054e-6	1.432e-6
0.375	3.143e-6	1.494e-6
0.385	3.231e-6	1.559e-6
0.395	3.322e-6	1.625e-6
0.405	3.417e-6	1.694e-6
0.415	3.516e-6	1.764e-6
0.425	3.618e-6	1.836e-6
0.435	3.723e-6	1.911e-6
0.445	3.830e-6	1.988e-6
0.455	3.940e-6	2.066e-6
0.465	4.052e-6	2.147e-6
0.475	4.165e-6	2.231e-6
0.485	4.277e-6	2.316e-6
0.495	4.389e-6	2.404e-6
0.505	4.503e-6	2.494e-6
0.515	4.621e-6	2.587e-6
0.525	4.745e-6	2.681e-6
0.535	4.868e-6	2.779e-6
0.545	4.992e-6	2.879e-6
0.555	5.113e-6	2.981e-6
0.565	5.230e-6	3.085e-6
0.575	5.343e-6	3.192e-6
0.585	5.453e-6	3.301e-6
0.595	5.561e-6	3.413e-6
0.605	5.672e-6	3.526e-6
0.615	5.785e-6	3.642e-6
0.625	5.899e-6	3.760e-6
0.635	6.010e-6	3.880e-6
0.645	6.118e-6	4.002e-6
0.655	6.225e-6	4.127e-6
0.665	6.330e-6	4.253e-6
0.675	6.438e-6	4.382e-6
0.685	6.549e-6	4.513e-6
0.695	6.667e-6	4.646e-6
0.705	6.794e-6	4.782e-6
0.715	6.927e-6	4.921e-6
0.725	7.067e-6	5.062e-6
0.735	7.216e-6	5.207e-6
0.745	7.377e-6	5.354e-6
0.755	7.555e-6	5.505e-6
0.765	7.752e-6	5.660e-6
0.775	7.968e-6	5.820e-6
0.785	8.203e-6	5.984e-6
0.795	8.459e-6	6.153e-6
0.795	5.834e-6	1.167e-7
0.785	4.705e-6	2.108e-7
0.775	3.753e-6	2.858e-7
0.765	2.977e-6	3.454e-7
0.755	2.412e-6	3.936e-7
0.745	1.992e-6	4.334e-7
0.735	1.663e-6	4.667e-7
0.725	1.380e-6	4.943e-7
0.715	1.137e-6	5.170e-7
0.705	9.313e-7	5.357e-7
0.695	7.542e-7	5.508e-7
0.685	5.987e-7	5.627e-7
0.675	4.585e-7	5.719e-7
0.665	3.322e-7	5.785e-7
0.655	2.192e-7	5.829e-7
0.645	1.207e-7	5.853e-7
0.635	3.097e-8	5.860e-7
0.625	-5.233e-8	5.849e-7
0.615	-1.325e-7	5.823e-7
0.605	-2.086e-7	5.781e-7
0.595	-2.770e-7	5.726e-7
0.585	-3.392e-7	5.658e-7
0.575	-3.989e-7	5.578e-7
0.565	-4.559e-7	5.487e-7
0.555	-5.126e-7	5.384e-7
0.545	-5.662e-7	5.271e-7
0.535	-6.135e-7	5.148e-7
0.525	-6.594e-7	5.016e-7
0.515	-7.064e-7	4.875e-7
0.505	-7.524e-7	4.725e-7
0.495	-7.976e-7	4.565e-7
0.485	-8.388e-7	4.397e-7
0.475	-8.746e-7	4.222e-7
0.465	-9.084e-7	4.041e-7
0.455	-9.432e-7	3.852e-7
0.445	-9.775e-7	3.657e-7
0.435	-1.012e-6	3.454e-7
0.425	-1.048e-6	3.245e-7
0.415	-1.085e-6	3.028e-7
0.405	-1.123e-6	2.803e-7
0.395	-1.160e-6	2.571e-7
0.385	-1.194e-6	2.332e-7
0.375	-1.222e-6	2.088e-7
0.365	-1.252e-6	1.838e-7
0.355	-1.282e-6	1.581e-7
0.345	-1.316e-6	1.318e-7
0.335	-1.353e-6	1.047e-7
0.325	-1.391e-6	7.690e-8
0.315	-1.427e-6	4.837e-8
0.305	-1.465e-6	1.907e-8
0.295	-1.502e-6	-1.096e-8
0.285	-1.539e-6	-4.174e-8
0.275	-1.579e-6	-7.332e-8
0.265	-1.617e-6	-1.057e-7
0.255	-1.651e-6	-1.387e-7
0.245	-1.684e-6	-1.724e-7
0.235	-1.715e-6	-2.067e-7
0.225	-1.746e-6	-2.416e-7
0.215	-1.784e-6	-2.773e-7
0.205	-1.824e-6	-3.137e-7
0.195	-1.861e-6	-3.510e-7
0.185	-1.899e-6	-3.890e-7
0.175	-1.931e-6	-4.276e-7
0.165	-1.959e-6	-4.668e-7
0.155	-1.991e-6	-5.066e-7
0.145	-2.020e-6	-5.470e-7
0.135	-2.047e-6	-5.879e-7
0.125	-2.076e-6	-6.294e-7
0.115	-2.101e-6	-6.715e-7
0.105	-2.127e-6	-7.140e-7
0.095	-2.159e-6	-7.572e-7
0.085	-2.189e-6	-8.010e-7
0.075	-2.217e-6	-8.453e-7
0.065	-2.248e-6	-8.903e-7
0.055	-2.273e-6	-9.357e-7
0.045	-2.298e-6	-9.817e-7
0.035	-2.321e-6	-1.028e-6
0.025	-2.342e-6	-1.075e-6
0.015	-2.363e-6	-1.122e-6
0.005	-2.385e-6	-1.170e-6
-0.005	-2.403e-6	-1.218e-6
-0.015	-2.420e-6	-1.266e-6
-0.025	-2.434e-6	-1.315e-6
-0.035	-2.444e-6	-1.364e-6
-0.045	-2.454e-6	-1.413e-6
-0.055	-2.464e-6	-1.462e-6
-0.065	-2.467e-6	-1.512e-6
-0.075	-2.472e-6	-1.561e-6
-0.085	-2.481e-6	-1.611e-6
-0.095	-2.492e-6	-1.661e-6
-0.105	-2.506e-6	-1.711e-6
-0.115	-2.526e-6	-1.761e-6
-0.125	-2.543e-6	-1.812e-6
-0.135	-2.558e-6	-1.863e-6
-0.145	-2.575e-6	-1.915e-6
-0.155	-2.590e-6	-1.967e-6
-0.165	-2.606e-6	-2.019e-6
-0.175	-2.627e-6	-2.071e-6
-0.185	-2.647e-6	-2.124e-6
-0.195	-2.667e-6	-2.177e-6
-0.205	-2.690e-6	-2.231e-6
-0.215	-2.715e-6	-2.286e-6
-0.225	-2.744e-6	-2.340e-6
-0.235	-2.781e-6	-2.396e-6
-0.245	-2.816e-6	-2.452e-6
-0.255	-2.847e-6	-2.509e-6
-0.265	-2.875e-6	-2.567e-6
-0.275	-2.901e-6	-2.625e-6
-0.285	-2.933e-6	-2.683e-6
-0.295	-2.972e-6	-2.743e-6
-0.305	-3.014e-6	-2.803e-6
-0.315	-3.060e-6	-2.864e-6
-0.325	-3.107e-6	-2.927e-6
-0.335	-3.155e-6	-2.990e-6
-0.345	-3.210e-6	-3.054e-6
-0.355	-3.277e-6	-3.119e-6
-0.365	-3.360e-6	-3.187e-6
-0.375	-3.481e-6	-3.256e-6
-0.385	-3.655e-6	-3.329e-6
-0.395	-3.917e-6	-3.408e-6
-0.405	-4.315e-6	-3.494e-6
-0.415	-4.903e-6	-3.592e-6
-0.425	-5.734e-6	-3.707e-6
-0.435	-6.865e-6	-3.844e-6
-0.445	-8.317e-6	-4.010e-6
-0.455	-1.010e-5	-4.212e-6
-0.465	-1.223e-5	-4.457e-6
-0.475	-1.468e-5	-4.751e-6
-0.485	-1.751e-5	-5.101e-6
-0.495	-2.075e-5	-5.516e-6
-0.505	-2.448e-5	-6.005e-6
-0.515	-2.877e-5	-6.581e-6
-0.525	-3.365e-5	-7.254e-6
-0.535	-3.910e-5	-8.036e-6
-0.545	-4.519e-5	-8.939e-6
-0.555	-5.193e-5	-9.978e-6
-0.565	-5.942e-5	-1.117e-5
-0.575	-6.781e-5	-1.252e-5
-0.585	-7.739e-5	-1.407e-5
-0.595	-8.848e-5	-1.584e-5
-0.605	-1.013e-4	-1.787e-5
-0.615	-1.159e-4	-2.018e-5
-0.625	-1.321e-4	-2.283e-5
-0.635	-1.501e-4	-2.583e-5
-0.645	-1.699e-4	-2.922e-5
-0.655	-1.915e-4	-3.305e-5
-0.665	-2.138e-4	-3.733e-5
-0.675	-2.346e-4	-4.202e-5
-0.685	-2.512e-4	-4.705e-5
-0.695	-2.614e-4	-5.227e-5
-0.705	-2.645e-4	-5.757e-5
-0.715	-2.617e-4	-6.280e-5
-0.725	-2.548e-4	-6.790e-5
-0.735	-2.458e-4	-7.281e-5
-0.745	-2.359e-4	-7.753e-5
-0.755	-2.260e-4	-8.205e-5
-0.765	-2.164e-4	-8.638e-5
-0.775	-2.074e-4	-9.053e-5
-0.785	-1.990e-4	-9.451e-5
-0.795	-1.915e-4	-9.834e-5
-0.805	-1.847e-4	-1.020e-4
-0.815	-1.786e-4	-1.056e-4
-0.825	-1.730e-4	-1.091e-4
-0.835	-1.680e-4	-1.124e-4
-0.845	-1.633e-4	-1.157e-4
-0.855	-1.591e-4	-1.189e-4
-0.865	-1.552e-4	-1.220e-4
-0.875	-1.516e-4	-1.250e-4
-0.885	-1.482e-4	-1.280e-4
-0.895	-1.450e-4	-1.309e-4
-0.905	-1.421e-4	-1.337e-4
-0.915	-1.393e-4	-1.365e-4
-0.925	-1.367e-4	-1.392e-4
-0.935	-1.342e-4	-1.419e-4
-0.945	-1.319e-4	-1.446e-4
-0.955	-1.297e-4	-1.472e-4
-0.965	-1.276e-4	-1.497e-4
-0.975	-1.257e-4	-1.522e-4
-0.985	-1.238e-4	-1.547e-4
-0.995	-1.221e-4	-1.571e-4
-1.005	-1.204e-4	-1.595e-4
-1.015	-1.188e-4	-1.619e-4
-1.025	-1.173e-4	-1.643e-4
-1.035	-1.159e-4	-1.666e-4
-1.045	-1.146e-4	-1.689e-4
-1.055	-1.133e-4	-1.711e-4
-1.065	-1.121e-4	-1.734e-4
-1.075	-1.110e-4	-1.756e-4
-1.085	-1.100e-4	-1.778e-4
-1.095	-1.090e-4	-1.800e-4
-1.105	-1.081e-4	-1.821e-4
-1.115	-1.072e-4	-1.843e-4
-1.125	-1.064e-4	-1.864e-4
-1.135	-1.057e-4	-1.885e-4
-1.145	-1.050e-4	-1.906e-4
-1.155	-1.044e-4	-1.927e-4
-1.165	-1.038e-4	-1.948e-4
-1.175	-1.033e-4	-1.969e-4
-1.185	-1.029e-4	-1.989e-4
-1.195	-1.025e-4	-2.010e-4
-1.195	-9.856e-5	-1.971e-6
-1.185	-9.613e-5	-3.894e-6
-1.175	-9.390e-5	-5.772e-6
-1.165	-9.188e-5	-7.609e-6
-1.155	-9.008e-5	-9.411e-6
-1.145	-8.846e-5	-1.118e-5
-1.135	-8.697e-5	-1.292e-5
-1.125	-8.557e-5	-1.463e-5
-1.115	-8.426e-5	-1.632e-5
-1.105	-8.301e-5	-1.798e-5
-1.095	-8.184e-5	-1.961e-5
-1.085	-8.071e-5	-2.123e-5
-1.075	-7.963e-5	-2.282e-5
-1.065	-7.859e-5	-2.439e-5
-1.055	-7.758e-5	-2.594e-5
-1.045	-7.659e-5	-2.747e-5
-1.035	-7.563e-5	-2.899e-5
-1.025	-7.468e-5	-3.048e-5
-1.015	-7.375e-5	-3.196e-5
-1.005	-7.283e-5	-3.341e-5
-0.995	-7.192e-5	-3.485e-5
-0.985	-7.101e-5	-3.627e-5
-0.975	-7.010e-5	-3.767e-5
-0.965	-6.918e-5	-3.906e-5
-0.955	-6.826e-5	-4.042e-5
-0.945	-6.734e-5	-4.177e-5
-0.935	-6.641e-5	-4.310e-5
-0.925	-6.547e-5	-4.441e-5
-0.915	-6.451e-5	-4.570e-5
-0.905	-6.354e-5	-4.697e-5
-0.895	-6.255e-5	-4.822e-5
-0.885	-6.154e-5	-4.945e-5
-0.875	-6.050e-5	-5.066e-5
-0.865	-5.942e-5	-5.185e-5
-0.855	-5.832e-5	-5.301e-5
-0.845	-5.717e-5	-5.416e-5
-0.835	-5.597e-5	-5.528e-5
-0.825	-5.472e-5	-5.637e-5
-0.815	-5.339e-5	-5.744e-5
-0.805	-5.197e-5	-5.848e-5
-0.795	-5.043e-5	-5.949e-5
-0.785	-4.873e-5	-6.046e-5
-0.775	-4.681e-5	-6.140e-5
-0.765	-4.458e-5	-6.229e-5
-0.755	-4.190e-5	-6.313e-5
-0.745	-3.852e-5	-6.390e-5
-0.735	-3.416e-5	-6.458e-5
-0.725	-2.847e-5	-6.515e-5
-0.715	-2.106e-5	-6.557e-5
-0.705	-1.161e-5	-6.580e-5
-0.695	3.728e-8	-6.580e-5
-0.685	1.386e-5	-6.553e-5
-0.675	2.942e-5	-6.494e-5
-0.665	4.593e-5	-6.402e-5
-0.655	6.231e-5	-6.277e-5
-0.645	7.729e-5	-6.123e-5
-0.635	8.961e-5	-5.943e-5
-0.625	9.841e-5	-5.747e-5
-0.615	1.033e-4	-5.540e-5
-0.605	1.044e-4	-5.331e-5
-0.595	1.024e-4	-5.127e-5
-0.585	9.833e-5	-4.930e-5
-0.575	9.309e-5	-4.744e-5
-0.565	8.747e-5	-4.569e-5
-0.555	8.194e-5	-4.405e-5
-0.545	7.676e-5	-4.251e-5
-0.535	7.202e-5	-4.107e-5
-0.525	6.770e-5	-3.972e-5
-0.515	6.379e-5	-3.844e-5
-0.505	6.021e-5	-3.724e-5
-0.495	5.694e-5	-3.610e-5
-0.485	5.391e-5	-3.502e-5
-0.475	5.111e-5	-3.400e-5
-0.465	4.851e-5	-3.303e-5
-0.455	4.610e-5	-3.211e-5
-0.445	4.387e-5	-3.123e-5
-0.435	4.182e-5	-3.039e-5
-0.425	3.992e-5	-2.960e-5
-0.415	3.816e-5	-2.883e-5
-0.405	3.654e-5	-2.810e-5
-0.395	3.502e-5	-2.740e-5
-0.385	3.360e-5	-2.673e-5
-0.375	3.226e-5	-2.608e-5
-0.365	3.099e-5	-2.546e-5
-0.355	2.979e-5	-2.487e-5
-0.345	2.866e-5	-2.430e-5
-0.335	2.760e-5	-2.374e-5
-0.325	2.660e-5	-2.321e-5
-0.315	2.567e-5	-2.270e-5
-0.305	2.480e-5	-2.220e-5
-0.295	2.400e-5	-2.172e-5
-0.285	2.324e-5	-2.126e-5
-0.275	2.254e-5	-2.081e-5
-0.265	2.188e-5	-2.037e-5
-0.255	2.127e-5	-1.994e-5
-0.245	2.070e-5	-1.953e-5
-0.235	2.015e-5	-1.913e-5
-0.225	1.964e-5	-1.873e-5
-0.215	1.916e-5	-1.835e-5
-0.205	1.871e-5	-1.798e-5
-0.195	1.828e-5	-1.761e-5
-0.185	1.787e-5	-1.725e-5
-0.175	1.749e-5	-1.690e-5
-0.165	1.713e-5	-1.656e-5
-0.155	1.679e-5	-1.623e-5
-0.145	1.647e-5	-1.590e-5
-0.135	1.617e-5	-1.557e-5
-0.125	1.589e-5	-1.525e-5
-0.115	1.564e-5	-1.494e-5
-0.105	1.542e-5	-1.463e-5
-0.095	1.525e-5	-1.433e-5
-0.085	1.513e-5	-1.403e-5
-0.075	1.511e-5	-1.372e-5
-0.065	1.520e-5	-1.342e-5
-0.055	1.546e-5	-1.311e-5
-0.045	1.591e-5	-1.279e-5
-0.035	1.660e-5	-1.246e-5
-0.025	1.758e-5	-1.211e-5
-0.015	1.887e-5	-1.173e-5
-0.005	2.053e-5	-1.132e-5
0.005	2.260e-5	-1.087e-5
0.015	2.512e-5	-1.037e-5
0.025	2.814e-5	-9.803e-6
0.035	3.173e-5	-9.169e-6
0.045	3.596e-5	-8.450e-6
0.055	4.083e-5	-7.633e-6
0.065	4.634e-5	-6.706e-6
0.075	5.239e-5	-5.658e-6
0.085	5.894e-5	-4.480e-6
0.095	6.592e-5	-3.161e-6
0.105	7.327e-5	-1.696e-6
0.115	8.092e-5	-7.753e-8
0.125	8.872e-5	1.697e-6
0.135	9.650e-5	3.627e-6
0.145	1.041e-4	5.709e-6
0.155	1.116e-4	7.941e-6
0.165	1.189e-4	1.032e-5
0.175	1.260e-4	1.284e-5
0.185	1.321e-4	1.548e-5
0.195	1.354e-4	1.819e-5
0.205	1.336e-4	2.086e-5
0.215	1.249e-4	2.336e-5
0.225	1.093e-4	2.555e-5
0.235	8.955e-5	2.734e-5
0.245	6.952e-5	2.873e-5
0.255	5.283e-5	2.978e-5
0.265	4.111e-5	3.061e-5
0.275	3.386e-5	3.128e-5
0.285	2.956e-5	3.187e-5
0.295	2.674e-5	3.241e-5
0.305	2.458e-5	3.290e-5
0.315	2.283e-5	3.336e-5
0.325	2.142e-5	3.379e-5
0.335	2.031e-5	3.419e-5
0.345	1.941e-5	3.458e-5
0.355	1.865e-5	3.495e-5
0.365	1.798e-5	3.531e-5
0.375	1.736e-5	3.566e-5
0.385	1.679e-5	3.600e-5
0.395	1.627e-5	3.632e-5
0.405	1.580e-5	3.664e-5
0.415	1.538e-5	3.694e-5
0.425	1.500e-5	3.724e-5
0.435	1.467e-5	3.754e-5
0.445	1.439e-5	3.783e-5
0.455	1.414e-5	3.811e-5
0.465	1.392e-5	3.839e-5
0.475	1.373e-5	3.866e-5
0.485	1.356e-5	3.893e-5
0.495	1.340e-5	3.920e-5
0.505	1.327e-5	3.947e-5
0.515	1.316e-5	3.973e-5
0.525	1.306e-5	3.999e-5
0.535	1.297e-5	4.025e-5
0.545	1.290e-5	4.051e-5
0.555	1.285e-5	4.076e-5
0.565	1.281e-5	4.102e-5
0.575	1.279e-5	4.128e-5
0.585	1.279e-5	4.153e-5
0.595	1.280e-5	4.179e-5
0.605	1.282e-5	4.204e-5
0.615	1.286e-5	4.230e-5
0.625	1.291e-5	4.256e-5
0.635	1.299e-5	4.282e-5
0.645	1.308e-5	4.308e-5
0.655	1.320e-5	4.335e-5
0.665	1.335e-5	4.361e-5
0.675	1.352e-5	4.388e-5
0.685	1.370e-5	4.416e-5
0.695	1.391e-5	4.444e-5
0.705	1.413e-5	4.472e-5
0.715	1.438e-5	4.501e-5
0.725	1.465e-5	4.530e-5
0.735	1.495e-5	4.560e-5
0.745	1.528e-5	4.590e-5
0.755	1.564e-5	4.622e-5
0.765	1.605e-5	4.654e-5
0.775	1.650e-5	4.687e-5
0.785	1.699e-5	4.721e-5
0.795	1.752e-5	4.756e-5
0.795	1.494e-5	2.987e-7
0.785	1.276e-5	5.540e-7
0.775	1.092e-5	7.724e-7
0.765	9.420e-6	9.608e-7
0.755	8.321e-6	1.127e-6
0.745	7.495e-6	1.277e-6
0.735	6.846e-6	1.414e-6
0.725	6.283e-6	1.540e-6
0.715	5.802e-6	1.656e-6
0.705	5.387e-6	1.764e-6
0.695	5.022e-6	1.864e-6
0.685	4.699e-6	1.958e-6
0.675	4.414e-6	2.046e-6
0.665	4.158e-6	2.129e-6
0.655	3.926e-6	2.208e-6
0.645	3.712e-6	2.282e-6
0.635	3.515e-6	2.352e-6
0.625	3.333e-6	2.419e-6
0.615	3.165e-6	2.482e-6
0.605	3.007e-6	2.543e-6
0.595	2.860e-6	2.600e-6
0.585	2.721e-6	2.654e-6
0.575	2.588e-6	2.706e-6
0.565	2.463e-6	2.755e-6
0.555	2.341e-6	2.802e-6
0.545	2.224e-6	2.846e-6
0.535	2.113e-6	2.889e-6
0.525	2.008e-6	2.929e-6
0.515	1.911e-6	2.967e-6
0.505	1.818e-6	3.003e-6
0.495	1.724e-6	3.038e-6
0.485	1.631e-6	3.071e-6
0.475	1.539e-6	3.101e-6
0.465	1.449e-6	3.130e-6
0.455	1.363e-6	3.158e-6
0.445	1.278e-6	3.183e-6
0.435	1.194e-6	3.207e-6
0.425	1.111e-6	3.229e-6
0.415	1.028e-6	3.250e-6
0.405	9.422e-7	3.269e-6
0.395	8.559e-7	3.286e-6
0.385	7.674e-7	3.301e-6
0.375	6.769e-7	3.315e-6
0.365	5.862e-7	3.326e-6
0.355	4.950e-7	3.336e-6
0.345	3.996e-7	3.344e-6
0.335	2.999e-7	3.350e-6
0.325	1.919e-7	3.354e-6
0.315	7.356e-8	3.356e-6
0.305	-5.538e-8	3.354e-6
0.295	-1.965e-7	3.351e-6
0.285	-3.493e-7	3.344e-6
0.275	-5.127e-7	3.333e-6
0.265	-6.883e-7	3.320e-6
0.255	-8.726e-7	3.302e-6
0.245	-1.065e-6	3.281e-6
0.235	-1.267e-6	3.255e-6
0.225	-1.479e-6	3.226e-6
0.215	-1.699e-6	3.192e-6
0.205	-1.930e-6	3.153e-6
0.195	-2.165e-6	3.110e-6
0.185	-2.396e-6	3.062e-6
0.175	-2.615e-6	3.010e-6
0.165	-2.819e-6	2.953e-6
0.155	-3.003e-6	2.893e-6
0.145	-3.170e-6	2.830e-6
0.135	-3.316e-6	2.764e-6
0.125	-3.431e-6	2.695e-6
0.115	-3.511e-6	2.625e-6
0.105	-3.557e-6	2.554e-6
0.095	-3.562e-6	2.482e-6
0.085	-3.537e-6	2.412e-6
0.075	-3.486e-6	2.342e-6
0.065	-3.416e-6	2.274e-6
0.055	-3.335e-6	2.207e-6
0.045	-3.253e-6	2.142e-6
0.035	-3.169e-6	2.078e-6
0.025	-3.093e-6	2.017e-6
0.015	-3.032e-6	1.956e-6
0.005	-2.989e-6	1.896e-6
-0.005	-2.958e-6	1.837e-6
-0.015	-2.937e-6	1.778e-6
-0.025	-2.915e-6	1.720e-6
-0.035	-2.893e-6	1.662e-6
-0.045	-2.873e-6	1.605e-6
-0.055	-2.856e-6	1.548e-6
-0.065	-2.842e-6	1.491e-6
-0.075	-2.836e-6	1.434e-6
-0.085	-2.831e-6	1.377e-6
-0.095	-2.826e-6	1.321e-6
-0.105	-2.822e-6	1.264e-6
-0.115	-2.814e-6	1.208e-6
-0.125	-2.807e-6	1.152e-6
-0.135	-2.805e-6	1.096e-6
-0.145	-2.801e-6	1.040e-6
-0.155	-2.801e-6	9.839e-7
-0.165	-2.798e-6	9.279e-7
-0.175	-2.790e-6	8.721e-7
-0.185	-2.782e-6	8.165e-7
-0.195	-2.773e-6	7.610e-7
-0.205	-2.765e-6	7.057e-7
-0.215	-2.767e-6	6.504e-7
-0.225	-2.772e-6	5.949e-7
-0.235	-2.778e-6	5.394e-7
-0.245	-2.790e-6	4.836e-7
-0.255	-2.808e-6	4.274e-7
-0.265	-2.835e-6	3.707e-7
-0.275	-2.873e-6	3.132e-7
-0.285	-2.917e-6	2.549e-7
-0.295	-2.965e-6	1.956e-7
-0.305	-3.019e-6	1.352e-7
-0.315	-3.078e-6	7.365e-8
-0.325	-3.139e-6	1.088e-8
-0.335	-3.198e-6	-5.309e-8
-0.345	-3.260e-6	-1.183e-7
-0.355	-3.328e-6	-1.848e-7
-0.365	-3.402e-6	-2.529e-7
-0.375	-3.488e-6	-3.226e-7
-0.385	-3.584e-6	-3.943e-7
-0.395	-3.704e-6	-4.684e-7
-0.405	-3.867e-6	-5.457e-7
-0.415	-4.094e-6	-6.276e-7
-0.425	-4.412e-6	-7.159e-7
-0.435	-4.851e-6	-8.129e-7
-0.445	-5.435e-6	-9.216e-7
-0.455	-6.210e-6	-1.046e-6
-0.465	-7.213e-6	-1.190e-6
-0.475	-8.493e-6	-1.360e-6
-0.485	-1.012e-5	-1.562e-6
-0.495	-1.217e-5	-1.806e-6
-0.505	-1.471e-5	-2.100e-6
-0.515	-1.780e-5	-2.456e-6
-0.525	-2.148e-5	-2.885e-6
-0.535	-2.575e-5	-3.400e-6
-0.545	-3.057e-5	-4.012e-6
-0.555	-3.591e-5	-4.730e-6
-0.565	-4.175e-5	-5.565e-6
-0.575	-4.814e-5	-6.528e-6
-0.585	-5.521e-5	-7.632e-6
-0.595	-6.321e-5	-8.896e-6
-0.605	-7.245e-5	-1.035e-5
-0.615	-8.339e-5	-1.201e-5
-0.625	-9.648e-5	-1.394e-5
-0.635	-1.121e-4	-1.618e-5
-0.645	-1.301e-4	-1.878e-5
-0.655	-1.497e-4	-2.178e-5
-0.665	-1.694e-4	-2.517e-5
-0.675	-1.875e-4	-2.892e-5
-0.685	-2.022e-4	-3.296e-5
-0.695	-2.122e-4	-3.721e-5
-0.705	-2.174e-4	-4.155e-5
-0.715	-2.180e-4	-4.591e-5
-0.725	-2.149e-4	-5.021e-5
-0.735	-2.092e-4	-5.440e-5
-0.745	-2.020e-4	-5.844e-5
-0.755	-1.943e-4	-6.232e-5
-0.765	-1.864e-4	-6.605e-5
-0.775	-1.790e-4	-6.963e-5
-0.785	-1.721e-4	-7.307e-5
-0.795	-1.657e-4	-7.639e-5
-0.805	-1.600e-4	-7.959e-5
-0.815	-1.547e-4	-8.268e-5
-0.825	-1.500e-4	-8.568e-5
-0.835	-1.456e-4	-8.859e-5
-0.845	-1.416e-4	-9.142e-5
-0.855	-1.379e-4	-9.418e-5
-0.865	-1.345e-4	-9.687e-5
-0.875	-1.313e-4	-9.950e-5
-0.885	-1.283e-4	-1.021e-4
-0.895	-1.256e-4	-1.046e-4
-0.905	-1.230e-4	-1.070e-4
-0.915	-1.206e-4	-1.094e-4
-0.925	-1.183e-4	-1.118e-4
-0.935	-1.161e-4	-1.141e-4
-0.945	-1.141e-4	-1.164e-4
-0.955	-1.122e-4	-1.187e-4
-0.965	-1.104e-4	-1.209e-4
-0.975	-1.086e-4	-1.230e-4
-0.985	-1.070e-4	-1.252e-4
-0.995	-1.055e-4	-1.273e-4
-1.005	-1.040e-4	-1.294e-4
-1.015	-1.026e-4	-1.314e-4
-1.025	-1.013e-4	-1.334e-4
-1.035	-1.001e-4	-1.355e-4
-1.045	-9.889e-5	-1.374e-4
-1.055	-9.779e-5	-1.394e-4
-1.065	-9.675e-5	-1.413e-4
-1.075	-9.577e-5	-1.432e-4
-1.085	-9.485e-5	-1.451e-4
-1.095	-9.398e-5	-1.470e-4
-1.105	-9.317e-5	-1.489e-4
-1.115	-9.243e-5	-1.507e-4
-1.125	-9.174e-5	-1.526e-4
-1.135	-9.110e-5	-1.544e-4
-1.145	-9.052e-5	-1.562e-4
-1.155	-8.999e-5	-1.580e-4
-1.165	-8.951e-5	-1.598e-4
-1.175	-8.909e-5	-1.616e-4
-1.185	-8.872e-5	-1.633e-4
-1.195	-8.841e-5	-1.651e-4
-1.195	-8.478e-5	-1.696e-6
-1.185	-8.256e-5	-3.347e-6
-1.175	-8.054e-5	-4.958e-6
-1.165	-7.871e-5	-6.532e-6
-1.155	-7.711e-5	-8.074e-6
-1.145	-7.567e-5	-9.588e-6
-1.135	-7.436e-5	-1.107e-5
-1.125	-7.314e-5	-1.254e-5
-1.115	-7.199e-5	-1.398e-5
-1.105	-7.091e-5	-1.540e-5
-1.095	-6.988e-5	-1.679e-5
-1.085	-6.890e-5	-1.817e-5
-1.075	-6.796e-5	-1.953e-5
-1.065	-6.706e-5	-2.087e-5
-1.055	-6.619e-5	-2.220e-5
-1.045	-6.534e-5	-2.350e-5
-1.035	-6.450e-5	-2.479e-5
-1.025	-6.368e-5	-2.607e-5
-1.015	-6.288e-5	-2.732e-5
-1.005	-6.208e-5	-2.856e-5
-0.995	-6.129e-5	-2.979e-5
-0.985	-6.050e-5	-3.100e-5
-0.975	-5.972e-5	-3.220e-5
-0.965	-5.894e-5	-3.337e-5
-0.955	-5.814e-5	-3.454e-5
-0.945	-5.735e-5	-3.568e-5
-0.935	-5.653e-5	-3.681e-5
-0.925	-5.571e-5	-3.793e-5
-0.915	-5.488e-5	-3.903e-5
-0.905	-5.404e-5	-4.011e-5
-0.895	-5.319e-5	-4.117e-5
-0.885	-5.231e-5	-4.222e-5
-0.875	-5.141e-5	-4.325e-5
-0.865	-5.049e-5	-4.425e-5
-0.855	-4.953e-5	-4.525e-5
-0.845	-4.853e-5	-4.622e-5
-0.835	-4.749e-5	-4.717e-5
-0.825	-4.640e-5	-4.809e-5
-0.815	-4.525e-5	-4.900e-5
-0.805	-4.403e-5	-4.988e-5
-0.795	-4.273e-5	-5.073e-5
-0.785	-4.130e-5	-5.156e-5
-0.775	-3.971e-5	-5.235e-5
-0.765	-3.790e-5	-5.311e-5
-0.755	-3.576e-5	-5.383e-5
-0.745	-3.312e-5	-5.449e-5
-0.735	-2.972e-5	-5.508e-5
-0.725	-2.525e-5	-5.559e-5
-0.715	-1.940e-5	-5.598e-5
-0.705	-1.181e-5	-5.621e-5
-0.695	-2.262e-6	-5.626e-5
-0.685	9.312e-6	-5.607e-5
-0.675	2.268e-5	-5.562e-5
-0.665	3.718e-5	-5.488e-5
-0.655	5.175e-5	-5.384e-5
-0.645	6.521e-5	-5.254e-5
-0.635	7.630e-5	-5.101e-5
-0.625	8.409e-5	-4.933e-5
-0.615	8.825e-5	-4.756e-5
-0.605	8.897e-5	-4.578e-5
-0.595	8.693e-5	-4.405e-5
-0.585	8.310e-5	-4.238e-5
-0.575	7.834e-5	-4.082e-5
-0.565	7.329e-5	-3.935e-5
-0.555	6.837e-5	-3.798e-5
-0.545	6.374e-5	-3.671e-5
-0.535	5.948e-5	-3.552e-5
-0.525	5.559e-5	-3.441e-5
-0.515	5.206e-5	-3.337e-5
-0.505	4.885e-5	-3.239e-5
-0.495	4.594e-5	-3.147e-5
-0.485	4.328e-5	-3.061e-5
-0.475	4.087e-5	-2.979e-5
-0.465	3.868e-5	-2.901e-5
-0.455	3.669e-5	-2.828e-5
-0.445	3.489e-5	-2.758e-5
-0.435	3.325e-5	-2.692e-5
-0.425	3.176e-5	-2.628e-5
-0.415	3.039e-5	-2.567e-5
-0.405	2.914e-5	-2.509e-5
-0.395	2.799e-5	-2.453e-5
-0.385	2.692e-5	-2.399e-5
-0.375	2.591e-5	-2.348e-5
-0.365	2.496e-5	-2.298e-5
-0.355	2.407e-5	-2.249e-5
-0.345	2.321e-5	-2.203e-5
-0.335	2.241e-5	-2.158e-5
-0.325	2.166e-5	-2.115e-5
-0.315	2.095e-5	-2.073e-5
-0.305	2.030e-5	-2.032e-5
-0.295	1.969e-5	-1.993e-5
-0.285	1.912e-5	-1.955e-5
-0.275	1.858e-5	-1.918e-5
-0.265	1.808e-5	-1.881e-5
-0.255	1.762e-5	-1.846e-5
-0.245	1.718e-5	-1.812e-5
-0.235	1.677e-5	-1.778e-5
-0.225	1.639e-5	-1.746e-5
-0.215	1.602e-5	-1.714e-5
-0.205	1.568e-5	-1.682e-5
-0.195	1.536e-5	-1.651e-5
-0.185	1.506e-5	-1.621e-5
-0.175	1.477e-5	-1.592e-5
-0.165	1.451e-5	-1.563e-5
-0.155	1.426e-5	-1.534e-5
-0.145	1.402e-5	-1.506e-5
-0.135	1.381e-5	-1.479e-5
-0.125	1.360e-5	-1.451e-5
-0.115	1.342e-5	-1.425e-5
-0.105	1.327e-5	-1.398e-5
-0.095	1.317e-5	-1.372e-5
-0.085	1.312e-5	-1.345e-5
-0.075	1.314e-5	-1.319e-5
-0.065	1.325e-5	-1.293e-5
-0.055	1.349e-5	-1.266e-5
-0.045	1.388e-5	-1.238e-5
-0.035	1.445e-5	-1.209e-5
-0.025	1.525e-5	-1.178e-5
-0.015	1.632e-5	-1.146e-5
-0.005	1.769e-5	-1.110e-5
0.005	1.940e-5	-1.072e-5
0.015	2.150e-5	-1.029e-5
0.025	2.403e-5	-9.806e-6
0.035	2.698e-5	-9.266e-6
0.045	3.037e-5	-8.659e-6
0.055	3.417e-5	-7.976e-6
0.065	3.832e-5	-7.209e-6
0.075	4.278e-5	-6.354e-6
0.085	4.754e-5	-5.403e-6
0.095	5.250e-5	-4.353e-6
0.105	5.764e-5	-3.200e-6
0.115	6.290e-5	-1.942e-6
0.125	6.816e-5	-5.790e-7
0.135	7.334e-5	8.878e-7
0.145	7.845e-5	2.457e-6
0.155	8.343e-5	4.125e-6
0.165	8.822e-5	5.890e-6
0.175	9.258e-5	7.741e-6
0.185	9.583e-5	9.658e-6
0.195	9.696e-5	1.160e-5
0.205	9.483e-5	1.349e-5
0.215	8.868e-5	1.527e-5
0.225	7.875e-5	1.684e-5
0.235	6.650e-5	1.817e-5
0.245	5.410e-5	1.925e-5
0.255	4.353e-5	2.012e-5
0.265	3.577e-5	2.084e-5
0.275	3.064e-5	2.145e-5
0.285	2.731e-5	2.200e-5
0.295	2.493e-5	2.250e-5
0.305	2.301e-5	2.296e-5
0.315	2.142e-5	2.339e-5
0.325	2.012e-5	2.379e-5
0.335	1.909e-5	2.417e-5
0.345	1.827e-5	2.454e-5
0.355	1.758e-5	2.489e-5
0.365	1.696e-5	2.523e-5
0.375	1.638e-5	2.555e-5
0.385	1.585e-5	2.587e-5
0.395	1.535e-5	2.618e-5
0.405	1.489e-5	2.648e-5
0.415	1.448e-5	2.677e-5
0.425	1.410e-5	2.705e-5
0.435	1.377e-5	2.732e-5
0.445	1.348e-5	2.759e-5
0.455	1.323e-5	2.786e-5
0.465	1.299e-5	2.812e-5
0.475	1.279e-5	2.837e-5
0.485	1.260e-5	2.863e-5
0.495	1.243e-5	2.887e-5
0.505	1.228e-5	2.912e-5
0.515	1.214e-5	2.936e-5
0.525	1.201e-5	2.960e-5
0.535	1.191e-5	2.984e-5
0.545	1.182e-5	3.008e-5
0.555	1.175e-5	3.031e-5
0.565	1.169e-5	3.055e-5
0.575	1.164e-5	3.078e-5
0.585	1.160e-5	3.101e-5
0.595	1.159e-5	3.124e-5
0.605	1.159e-5	3.148e-5
0.615	1.161e-5	3.171e-5
0.625	1.166e-5	3.194e-5
0.635	1.174e-5	3.218e-5
0.645	1.184e-5	3.241e-5
0.655	1.198e-5	3.265e-5
0.665	1.213e-5	3.289e-5
0.675	1.231e-5	3.314e-5
0.685	1.250e-5	3.339e-5
0.695	1.272e-5	3.365e-5
0.705	1.297e-5	3.390e-5
0.715	1.325e-5	3.417e-5
0.725	1.355e-5	3.444e-5
0.735	1.388e-5	3.472e-5
0.745	1.424e-5	3.500e-5
0.755	1.466e-5	3.530e-5
0.765	1.512e-5	3.560e-5
0.775	1.563e-5	3.591e-5
0.785	1.618e-5	3.623e-5
0.795	1.677e-5	3.657e-5
0.795	1.452e-5	2.904e-7
0.785	1.229e-5	5.363e-7
0.775	1.042e-5	7.448e-7
0.765	8.906e-6	9.229e-7
0.755	7.821e-6	1.079e-6
0.745	7.015e-6	1.220e-6
0.735	6.383e-6	1.347e-6
0.725	5.829e-6	1.464e-6
0.715	5.365e-6	1.571e-6
0.705	4.969e-6	1.671e-6
0.695	4.626e-6	1.763e-6
0.685	4.319e-6	1.849e-6
0.675	4.043e-6	1.930e-6
0.665	3.795e-6	2.006e-6
0.655	3.569e-6	2.078e-6
0.645	3.365e-6	2.145e-6
0.635	3.179e-6	2.208e-6
0.625	3.010e-6	2.269e-6
0.615	2.853e-6	2.326e-6
0.605	2.708e-6	2.380e-6
0.595	2.569e-6	2.431e-6
0.585	2.438e-6	2.480e-6
0.575	2.314e-6	2.526e-6
0.565	2.197e-6	2.570e-6
0.555	2.084e-6	2.612e-6
0.545	1.977e-6	2.651e-6
0.535	1.873e-6	2.689e-6
0.525	1.776e-6	2.724e-6
0.515	1.683e-6	2.758e-6
0.505	1.594e-6	2.790e-6
0.495	1.504e-6	2.820e-6
0.485	1.417e-6	2.848e-6
0.475	1.327e-6	2.875e-6
0.465	1.241e-6	2.900e-6
0.455	1.157e-6	2.923e-6
0.445	1.079e-6	2.944e-6
0.435	1.004e-6	2.965e-6
0.425	9.300e-7	2.983e-6
0.415	8.508e-7	3.000e-6
0.405	7.703e-7	3.016e-6
0.395	6.874e-7	3.029e-6
0.385	6.058e-7	3.041e-6
0.375	5.252e-7	3.052e-6
0.365	4.427e-7	3.061e-6
0.355	3.577e-7	3.068e-6
0.345	2.715e-7	3.073e-6
0.335	1.817e-7	3.077e-6
0.325	8.810e-8	3.079e-6
0.315	-1.383e-8	3.079e-6
0.305	-1.281e-7	3.076e-6
0.295	-2.541e-7	3.071e-6
0.285	-3.931e-7	3.063e-6
0.275	-5.474e-7	3.052e-6
0.265	-7.189e-7	3.038e-6
0.255	-9.128e-7	3.019e-6
0.245	-1.132e-6	2.997e-6
0.235	-1.372e-6	2.969e-6
0.225	-1.628e-6	2.937e-6
0.215	-1.900e-6	2.899e-6
0.205	-2.181e-6	2.855e-6
0.195	-2.472e-6	2.806e-6
0.185	-2.764e-6	2.750e-6
0.175	-3.050e-6	2.689e-6
0.165	-3.317e-6	2.623e-6
0.155	-3.560e-6	2.552e-6
0.145	-3.769e-6	2.477e-6
0.135	-3.946e-6	2.398e-6
0.125	-4.082e-6	2.316e-6
0.115	-4.177e-6	2.232e-6
0.105	-4.230e-6	2.148e-6
0.095	-4.243e-6	2.063e-6
0.085	-4.222e-6	1.979e-6
0.075	-4.174e-6	1.895e-6
0.065	-4.107e-6	1.813e-6
0.055	-4.027e-6	1.732e-6
0.045	-3.940e-6	1.654e-6
0.035	-3.852e-6	1.577e-6
0.025	-3.770e-6	1.501e-6
0.015	-3.694e-6	1.427e-6
0.005	-3.629e-6	1.355e-6
-0.005	-3.575e-6	1.283e-6
-0.015	-3.529e-6	1.213e-6
-0.025	-3.491e-6	1.143e-6
-0.035	-3.465e-6	1.073e-6
-0.045	-3.446e-6	1.005e-6
-0.055	-3.432e-6	9.359e-7
-0.065	-3.423e-6	8.675e-7
-0.075	-3.411e-6	7.992e-7
-0.085	-3.398e-6	7.313e-7
-0.095	-3.388e-6	6.635e-7
-0.105	-3.384e-6	5.958e-7
-0.115	-3.389e-6	5.281e-7
-0.125	-3.400e-6	4.601e-7
-0.135	-3.406e-6	3.919e-7
-0.145	-3.405e-6	3.238e-7
-0.155	-3.398e-6	2.559e-7
-0.165	-3.386e-6	1.882e-7
-0.175	-3.380e-6	1.206e-7
-0.185	-3.380e-6	5.297e-8
-0.195	-3.381e-6	-1.464e-8
-0.205	-3.382e-6	-8.228e-8
-0.215	-3.380e-6	-1.499e-7
-0.225	-3.374e-6	-2.174e-7
-0.235	-3.366e-6	-2.847e-7
-0.245	-3.362e-6	-3.519e-7
-0.255	-3.362e-6	-4.192e-7
-0.265	-3.368e-6	-4.865e-7
-0.275	-3.382e-6	-5.542e-7
-0.285	-3.403e-6	-6.222e-7
-0.295	-3.433e-6	-6.909e-7
-0.305	-3.473e-6	-7.603e-7
-0.315	-3.525e-6	-8.308e-7
-0.325	-3.589e-6	-9.026e-7
-0.335	-3.658e-6	-9.758e-7
-0.345	-3.732e-6	-1.050e-6
-0.355	-3.814e-6	-1.127e-6
-0.365	-3.903e-6	-1.205e-6
-0.375	-4.006e-6	-1.285e-6
-0.385	-4.126e-6	-1.367e-6
-0.395	-4.262e-6	-1.453e-6
-0.405	-4.427e-6	-1.541e-6
-0.415	-4.629e-6	-1.634e-6
-0.425	-4.874e-6	-1.731e-6
-0.435	-5.184e-6	-1.835e-6
-0.445	-5.580e-6	-1.946e-6
-0.455	-6.087e-6	-2.068e-6
-0.465	-6.732e-6	-2.203e-6
-0.475	-7.546e-6	-2.354e-6
-0.485	-8.573e-6	-2.525e-6
-0.495	-9.876e-6	-2.723e-6
-0.505	-1.152e-5	-2.953e-6
-0.515	-1.357e-5	-3.225e-6
-0.525	-1.608e-5	-3.546e-6
-0.535	-1.910e-5	-3.928e-6
-0.545	-2.273e-5	-4.383e-6
-0.555	-2.705e-5	-4.924e-6
-0.565	-3.213e-5	-5.567e-6
-0.575	-3.798e-5	-6.326e-6
-0.585	-4.464e-5	-7.219e-6
-0.595	-5.216e-5	-8.262e-6
-0.605	-6.068e-5	-9.476e-6
-0.615	-7.045e-5	-1.088e-5
-0.625	-8.183e-5	-1.252e-5
-0.635	-9.513e-5	-1.442e-5
-0.645	-1.104e-4	-1.663e-5
-0.655	-1.272e-4	-1.918e-5
-0.665	-1.444e-4	-2.206e-5
-0.675	-1.605e-4	-2.527e-5
-0.685	-1.740e-4	-2.875e-5
-0.695	-1.838e-4	-3.243e-5
-0.705	-1.893e-4	-3.622e-5
-0.715	-1.909e-4	-4.003e-5
-0.725	-1.891e-4	-4.382e-5
-0.735	-1.849e-4	-4.752e-5
-0.745	-1.792e-4	-5.110e-5
-0.755	-1.727e-4	-5.455e-5
-0.765	-1.661e-4	-5.787e-5
-0.775	-1.597e-4	-6.107e-5
-0.785	-1.537e-4	-6.414e-5
-0.795	-1.482e-4	-6.711e-5
-0.805	-1.432e-4	-6.997e-5
-0.815	-1.386e-4	-7.275e-5
-0.825	-1.344e-4	-7.543e-5
-0.835	-1.305e-4	-7.804e-5
-0.845	-1.270e-4	-8.058e-5
-0.855	-1.237e-4	-8.306e-5
-0.865	-1.207e-4	-8.547e-5
-0.875	-1.178e-4	-8.783e-5
-0.885	-1.152e-4	-9.013e-5
-0.895	-1.128e-4	-9.239e-5
-0.905	-1.105e-4	-9.460e-5
-0.915	-1.083e-4	-9.676e-5
-0.925	-1.063e-4	-9.889e-5
-0.935	-1.044e-4	-1.010e-4
-0.945	-1.026e-4	-1.030e-4
-0.955	-1.008e-4	-1.050e-4
-0.965	-9.921e-5	-1.070e-4
-0.975	-9.769e-5	-1.090e-4
-0.985	-9.624e-5	-1.109e-4
-0.995	-9.488e-5	-1.128e-4
-1.005	-9.359e-5	-1.147e-4
-1.015	-9.237e-5	-1.165e-4
-1.025	-9.122e-5	-1.183e-4
-1.035	-9.014e-5	-1.202e-4
-1.045	-8.911e-5	-1.219e-4
-1.055	-8.815e-5	-1.237e-4
-1.065	-8.723e-5	-1.254e-4
-1.075	-8.637e-5	-1.272e-4
-1.085	-8.557e-5	-1.289e-4
-1.095	-8.483e-5	-1.306e-4
-1.105	-8.414e-5	-1.323e-4
-1.115	-8.351e-5	-1.339e-4
-1.125	-8.294e-5	-1.356e-4
-1.135	-8.242e-5	-1.372e-4
-1.145	-8.195e-5	-1.389e-4
-1.155	-8.154e-5	-1.405e-4
-1.165	-8.117e-5	-1.421e-4
-1.175	-8.085e-5	-1.437e-4
-1.185	-8.058e-5	-1.454e-4
-1.195	-8.036e-5	-1.470e-4
