Oct. 16, 2019   16:17:34
Cyclic Voltammetry
File: cv_pz_scan_rate_re2_003
Data Source:  Experiment
Instrument Model:  CHI760E
Data Proc:  Smoothing
Header: 
Note: 

Init E (V) = -0.2
High E (V) = -0.2
Low E (V) = -1.9
Init P/N = N
Scan Rate (V/s) = 0.25
Segment = 6
Sample Interval (V) = 0.005
Quiet Time (sec) = 2
Sensitivity (A/V) = 1e-4

Segment 1:
Ep = -1.457V
ip = -2.436e-4A
Ah = -1.463e-4C

Segment 2:
Ep = -0.938V
ip = 1.521e-4A
Ah = 1.055e-4C

Segment 3:
Ep = -1.452V
ip = -2.369e-4A
Ah = -1.443e-4C

Segment 4:
Ep = -0.938V
ip = 1.552e-4A
Ah = 1.051e-4C

Segment 5:
Ep = -1.452V
ip = -2.275e-4A
Ah = -1.359e-4C

Segment 6:
Ep = -0.933V
ip = 1.571e-4A
Ah = 1.089e-4C

Potential/V	Current/A

-0.202	2.116e-5	4.231e-7
-0.207	2.090e-5	8.412e-7
-0.212	2.068e-5	1.255e-6
-0.217	2.048e-5	1.664e-6
-0.222	2.033e-5	2.071e-6
-0.227	2.019e-5	2.475e-6
-0.232	2.005e-5	2.876e-6
-0.237	1.990e-5	3.274e-6
-0.242	1.973e-5	3.668e-6
-0.247	1.956e-5	4.060e-6
-0.252	1.940e-5	4.447e-6
-0.257	1.926e-5	4.833e-6
-0.262	1.914e-5	5.216e-6
-0.267	1.902e-5	5.596e-6
-0.272	1.889e-5	5.974e-6
-0.277	1.874e-5	6.348e-6
-0.282	1.861e-5	6.721e-6
-0.287	1.848e-5	7.090e-6
-0.292	1.835e-5	7.457e-6
-0.297	1.824e-5	7.822e-6
-0.302	1.812e-5	8.184e-6
-0.307	1.801e-5	8.545e-6
-0.312	1.789e-5	8.902e-6
-0.317	1.778e-5	9.258e-6
-0.322	1.768e-5	9.612e-6
-0.327	1.757e-5	9.963e-6
-0.332	1.744e-5	1.031e-5
-0.337	1.730e-5	1.066e-5
-0.342	1.713e-5	1.100e-5
-0.347	1.697e-5	1.134e-5
-0.352	1.681e-5	1.168e-5
-0.357	1.670e-5	1.201e-5
-0.362	1.664e-5	1.234e-5
-0.367	1.661e-5	1.267e-5
-0.372	1.656e-5	1.301e-5
-0.377	1.649e-5	1.334e-5
-0.382	1.639e-5	1.366e-5
-0.387	1.627e-5	1.399e-5
-0.392	1.617e-5	1.431e-5
-0.397	1.606e-5	1.463e-5
-0.402	1.594e-5	1.495e-5
-0.407	1.584e-5	1.527e-5
-0.412	1.572e-5	1.558e-5
-0.417	1.561e-5	1.590e-5
-0.422	1.552e-5	1.621e-5
-0.427	1.542e-5	1.651e-5
-0.432	1.531e-5	1.682e-5
-0.437	1.519e-5	1.712e-5
-0.442	1.505e-5	1.743e-5
-0.447	1.492e-5	1.772e-5
-0.452	1.481e-5	1.802e-5
-0.457	1.472e-5	1.831e-5
-0.462	1.463e-5	1.861e-5
-0.467	1.453e-5	1.890e-5
-0.472	1.441e-5	1.919e-5
-0.477	1.428e-5	1.947e-5
-0.482	1.418e-5	1.976e-5
-0.487	1.408e-5	2.004e-5
-0.492	1.400e-5	2.032e-5
-0.497	1.392e-5	2.060e-5
-0.502	1.383e-5	2.087e-5
-0.507	1.373e-5	2.115e-5
-0.512	1.363e-5	2.142e-5
-0.517	1.350e-5	2.169e-5
-0.522	1.333e-5	2.196e-5
-0.527	1.317e-5	2.222e-5
-0.532	1.302e-5	2.248e-5
-0.537	1.291e-5	2.274e-5
-0.542	1.283e-5	2.299e-5
-0.547	1.278e-5	2.325e-5
-0.552	1.271e-5	2.350e-5
-0.557	1.262e-5	2.376e-5
-0.562	1.251e-5	2.401e-5
-0.567	1.239e-5	2.425e-5
-0.572	1.227e-5	2.450e-5
-0.577	1.216e-5	2.474e-5
-0.582	1.205e-5	2.498e-5
-0.587	1.195e-5	2.522e-5
-0.592	1.184e-5	2.546e-5
-0.597	1.173e-5	2.569e-5
-0.602	1.161e-5	2.593e-5
-0.607	1.149e-5	2.616e-5
-0.612	1.137e-5	2.638e-5
-0.617	1.125e-5	2.661e-5
-0.622	1.115e-5	2.683e-5
-0.627	1.105e-5	2.705e-5
-0.632	1.095e-5	2.727e-5
-0.637	1.084e-5	2.749e-5
-0.642	1.073e-5	2.770e-5
-0.647	1.062e-5	2.792e-5
-0.652	1.051e-5	2.813e-5
-0.657	1.041e-5	2.833e-5
-0.662	1.030e-5	2.854e-5
-0.667	1.019e-5	2.874e-5
-0.672	1.006e-5	2.894e-5
-0.677	9.945e-6	2.914e-5
-0.682	9.847e-6	2.934e-5
-0.687	9.767e-6	2.954e-5
-0.692	9.695e-6	2.973e-5
-0.697	9.618e-6	2.992e-5
-0.702	9.529e-6	3.011e-5
-0.707	9.426e-6	3.030e-5
-0.712	9.311e-6	3.049e-5
-0.717	9.192e-6	3.067e-5
-0.722	9.079e-6	3.085e-5
-0.727	8.971e-6	3.103e-5
-0.732	8.873e-6	3.121e-5
-0.737	8.782e-6	3.139e-5
-0.742	8.686e-6	3.156e-5
-0.747	8.582e-6	3.173e-5
-0.752	8.470e-6	3.190e-5
-0.757	8.340e-6	3.207e-5
-0.762	8.211e-6	3.223e-5
-0.767	8.096e-6	3.239e-5
-0.772	7.988e-6	3.255e-5
-0.777	7.884e-6	3.271e-5
-0.782	7.775e-6	3.287e-5
-0.787	7.648e-6	3.302e-5
-0.792	7.517e-6	3.317e-5
-0.797	7.389e-6	3.332e-5
-0.802	7.263e-6	3.346e-5
-0.807	7.145e-6	3.361e-5
-0.812	7.028e-6	3.375e-5
-0.817	6.907e-6	3.388e-5
-0.822	6.783e-6	3.402e-5
-0.827	6.652e-6	3.415e-5
-0.832	6.513e-6	3.428e-5
-0.837	6.375e-6	3.441e-5
-0.842	6.244e-6	3.454e-5
-0.847	6.117e-6	3.466e-5
-0.852	5.992e-6	3.478e-5
-0.857	5.862e-6	3.489e-5
-0.862	5.720e-6	3.501e-5
-0.867	5.570e-6	3.512e-5
-0.872	5.419e-6	3.523e-5
-0.877	5.268e-6	3.533e-5
-0.882	5.121e-6	3.544e-5
-0.887	4.980e-6	3.554e-5
-0.892	4.837e-6	3.563e-5
-0.897	4.686e-6	3.573e-5
-0.902	4.528e-6	3.582e-5
-0.907	4.360e-6	3.590e-5
-0.912	4.187e-6	3.599e-5
-0.917	4.013e-6	3.607e-5
-0.922	3.836e-6	3.615e-5
-0.927	3.662e-6	3.622e-5
-0.932	3.495e-6	3.629e-5
-0.937	3.328e-6	3.636e-5
-0.942	3.154e-6	3.642e-5
-0.947	2.967e-6	3.648e-5
-0.952	2.759e-6	3.653e-5
-0.957	2.537e-6	3.658e-5
-0.962	2.316e-6	3.663e-5
-0.967	2.093e-6	3.667e-5
-0.972	1.872e-6	3.671e-5
-0.977	1.648e-6	3.674e-5
-0.982	1.413e-6	3.677e-5
-0.987	1.164e-6	3.679e-5
-0.992	9.074e-7	3.681e-5
-0.997	6.442e-7	3.682e-5
-1.002	3.822e-7	3.683e-5
-1.007	1.178e-7	3.683e-5
-1.012	-1.555e-7	3.683e-5
-1.017	-4.386e-7	3.682e-5
-1.022	-7.310e-7	3.681e-5
-1.027	-1.031e-6	3.679e-5
-1.032	-1.333e-6	3.676e-5
-1.037	-1.629e-6	3.673e-5
-1.042	-1.921e-6	3.669e-5
-1.047	-2.213e-6	3.665e-5
-1.052	-2.502e-6	3.660e-5
-1.057	-2.806e-6	3.654e-5
-1.062	-3.126e-6	3.648e-5
-1.067	-3.445e-6	3.641e-5
-1.072	-3.763e-6	3.633e-5
-1.077	-4.082e-6	3.625e-5
-1.082	-4.391e-6	3.616e-5
-1.087	-4.710e-6	3.607e-5
-1.092	-5.047e-6	3.597e-5
-1.097	-5.393e-6	3.586e-5
-1.102	-5.753e-6	3.575e-5
-1.107	-6.123e-6	3.562e-5
-1.112	-6.498e-6	3.549e-5
-1.117	-6.891e-6	3.535e-5
-1.122	-7.313e-6	3.521e-5
-1.127	-7.766e-6	3.505e-5
-1.132	-8.267e-6	3.489e-5
-1.137	-8.800e-6	3.471e-5
-1.142	-9.364e-6	3.452e-5
-1.147	-9.971e-6	3.433e-5
-1.152	-1.063e-5	3.411e-5
-1.157	-1.134e-5	3.389e-5
-1.162	-1.212e-5	3.364e-5
-1.167	-1.296e-5	3.338e-5
-1.172	-1.388e-5	3.311e-5
-1.177	-1.491e-5	3.281e-5
-1.182	-1.602e-5	3.249e-5
-1.187	-1.723e-5	3.214e-5
-1.192	-1.856e-5	3.177e-5
-1.197	-1.999e-5	3.137e-5
-1.202	-2.156e-5	3.094e-5
-1.207	-2.330e-5	3.048e-5
-1.212	-2.519e-5	2.997e-5
-1.217	-2.725e-5	2.943e-5
-1.222	-2.946e-5	2.884e-5
-1.227	-3.185e-5	2.820e-5
-1.232	-3.442e-5	2.751e-5
-1.237	-3.721e-5	2.677e-5
-1.242	-4.023e-5	2.596e-5
-1.247	-4.350e-5	2.509e-5
-1.252	-4.701e-5	2.415e-5
-1.257	-5.077e-5	2.314e-5
-1.262	-5.474e-5	2.204e-5
-1.267	-5.898e-5	2.086e-5
-1.272	-6.350e-5	1.959e-5
-1.277	-6.827e-5	1.823e-5
-1.282	-7.334e-5	1.676e-5
-1.287	-7.868e-5	1.519e-5
-1.292	-8.426e-5	1.350e-5
-1.297	-9.015e-5	1.170e-5
-1.302	-9.627e-5	9.774e-6
-1.307	-1.026e-4	7.722e-6
-1.312	-1.092e-4	5.538e-6
-1.317	-1.160e-4	3.218e-6
-1.322	-1.230e-4	7.575e-7
-1.327	-1.303e-4	-1.848e-6
-1.332	-1.377e-4	-4.602e-6
-1.337	-1.452e-4	-7.505e-6
-1.342	-1.527e-4	-1.056e-5
-1.347	-1.601e-4	-1.376e-5
-1.352	-1.673e-4	-1.711e-5
-1.357	-1.742e-4	-2.059e-5
-1.362	-1.807e-4	-2.421e-5
-1.367	-1.869e-4	-2.794e-5
-1.372	-1.929e-4	-3.180e-5
-1.377	-1.987e-4	-3.577e-5
-1.382	-2.044e-4	-3.986e-5
-1.387	-2.098e-4	-4.406e-5
-1.392	-2.150e-4	-4.836e-5
-1.397	-2.198e-4	-5.275e-5
-1.402	-2.245e-4	-5.724e-5
-1.407	-2.287e-4	-6.182e-5
-1.412	-2.326e-4	-6.647e-5
-1.417	-2.360e-4	-7.119e-5
-1.422	-2.390e-4	-7.597e-5
-1.427	-2.416e-4	-8.080e-5
-1.432	-2.439e-4	-8.568e-5
-1.437	-2.458e-4	-9.060e-5
-1.442	-2.472e-4	-9.554e-5
-1.447	-2.483e-4	-1.005e-4
-1.452	-2.490e-4	-1.055e-4
-1.457	-2.492e-4	-1.105e-4
-1.462	-2.490e-4	-1.154e-4
-1.467	-2.483e-4	-1.204e-4
-1.472	-2.471e-4	-1.254e-4
-1.477	-2.455e-4	-1.303e-4
-1.482	-2.436e-4	-1.351e-4
-1.487	-2.413e-4	-1.400e-4
-1.492	-2.388e-4	-1.447e-4
-1.497	-2.360e-4	-1.495e-4
-1.502	-2.331e-4	-1.541e-4
-1.507	-2.300e-4	-1.587e-4
-1.512	-2.269e-4	-1.633e-4
-1.517	-2.239e-4	-1.677e-4
-1.522	-2.209e-4	-1.722e-4
-1.527	-2.179e-4	-1.765e-4
-1.532	-2.152e-4	-1.808e-4
-1.537	-2.125e-4	-1.851e-4
-1.542	-2.099e-4	-1.893e-4
-1.547	-2.073e-4	-1.934e-4
-1.552	-2.048e-4	-1.975e-4
-1.557	-2.022e-4	-2.016e-4
-1.562	-1.999e-4	-2.055e-4
-1.567	-1.975e-4	-2.095e-4
-1.572	-1.954e-4	-2.134e-4
-1.577	-1.933e-4	-2.173e-4
-1.582	-1.913e-4	-2.211e-4
-1.587	-1.894e-4	-2.249e-4
-1.592	-1.876e-4	-2.286e-4
-1.597	-1.858e-4	-2.324e-4
-1.602	-1.841e-4	-2.360e-4
-1.607	-1.825e-4	-2.397e-4
-1.612	-1.810e-4	-2.433e-4
-1.617	-1.795e-4	-2.469e-4
-1.622	-1.781e-4	-2.505e-4
-1.627	-1.768e-4	-2.540e-4
-1.632	-1.755e-4	-2.575e-4
-1.637	-1.742e-4	-2.610e-4
-1.642	-1.731e-4	-2.645e-4
-1.647	-1.720e-4	-2.679e-4
-1.652	-1.710e-4	-2.713e-4
-1.657	-1.700e-4	-2.747e-4
-1.662	-1.690e-4	-2.781e-4
-1.667	-1.681e-4	-2.815e-4
-1.672	-1.672e-4	-2.848e-4
-1.677	-1.664e-4	-2.881e-4
-1.682	-1.656e-4	-2.914e-4
-1.687	-1.648e-4	-2.947e-4
-1.692	-1.640e-4	-2.980e-4
-1.697	-1.633e-4	-3.013e-4
-1.702	-1.627e-4	-3.045e-4
-1.707	-1.621e-4	-3.078e-4
-1.712	-1.615e-4	-3.110e-4
-1.717	-1.609e-4	-3.142e-4
-1.722	-1.603e-4	-3.174e-4
-1.727	-1.598e-4	-3.206e-4
-1.732	-1.593e-4	-3.238e-4
-1.737	-1.589e-4	-3.270e-4
-1.742	-1.585e-4	-3.302e-4
-1.747	-1.581e-4	-3.333e-4
-1.752	-1.578e-4	-3.365e-4
-1.757	-1.574e-4	-3.396e-4
-1.762	-1.571e-4	-3.428e-4
-1.767	-1.569e-4	-3.459e-4
-1.772	-1.567e-4	-3.490e-4
-1.777	-1.567e-4	-3.522e-4
-1.782	-1.566e-4	-3.553e-4
-1.787	-1.566e-4	-3.584e-4
-1.792	-1.566e-4	-3.616e-4
-1.797	-1.567e-4	-3.647e-4
-1.802	-1.568e-4	-3.678e-4
-1.807	-1.570e-4	-3.710e-4
-1.812	-1.572e-4	-3.741e-4
-1.817	-1.575e-4	-3.773e-4
-1.822	-1.579e-4	-3.804e-4
-1.827	-1.583e-4	-3.836e-4
-1.832	-1.587e-4	-3.868e-4
-1.837	-1.592e-4	-3.900e-4
-1.842	-1.598e-4	-3.932e-4
-1.847	-1.605e-4	-3.964e-4
-1.852	-1.612e-4	-3.996e-4
-1.857	-1.620e-4	-4.028e-4
-1.862	-1.628e-4	-4.061e-4
-1.867	-1.637e-4	-4.094e-4
-1.872	-1.647e-4	-4.127e-4
-1.877	-1.658e-4	-4.160e-4
-1.882	-1.669e-4	-4.193e-4
-1.887	-1.682e-4	-4.227e-4
-1.892	-1.695e-4	-4.261e-4
-1.897	-1.708e-4	-4.295e-4
-1.898	-1.631e-4	-3.262e-6
-1.893	-1.587e-4	-6.436e-6
-1.888	-1.546e-4	-9.528e-6
-1.883	-1.510e-4	-1.255e-5
-1.878	-1.478e-4	-1.550e-5
-1.873	-1.449e-4	-1.840e-5
-1.868	-1.423e-4	-2.125e-5
-1.863	-1.398e-4	-2.404e-5
-1.858	-1.375e-4	-2.679e-5
-1.853	-1.353e-4	-2.950e-5
-1.848	-1.332e-4	-3.216e-5
-1.843	-1.312e-4	-3.479e-5
-1.838	-1.293e-4	-3.737e-5
-1.833	-1.275e-4	-3.992e-5
-1.828	-1.258e-4	-4.244e-5
-1.823	-1.242e-4	-4.492e-5
-1.818	-1.225e-4	-4.737e-5
-1.813	-1.209e-4	-4.979e-5
-1.808	-1.194e-4	-5.218e-5
-1.803	-1.179e-4	-5.454e-5
-1.798	-1.165e-4	-5.687e-5
-1.793	-1.151e-4	-5.917e-5
-1.788	-1.138e-4	-6.145e-5
-1.783	-1.125e-4	-6.370e-5
-1.778	-1.113e-4	-6.592e-5
-1.773	-1.101e-4	-6.812e-5
-1.768	-1.089e-4	-7.030e-5
-1.763	-1.078e-4	-7.246e-5
-1.758	-1.067e-4	-7.459e-5
-1.753	-1.057e-4	-7.671e-5
-1.748	-1.046e-4	-7.880e-5
-1.743	-1.035e-4	-8.087e-5
-1.738	-1.025e-4	-8.292e-5
-1.733	-1.015e-4	-8.495e-5
-1.728	-1.005e-4	-8.696e-5
-1.723	-9.959e-5	-8.895e-5
-1.718	-9.866e-5	-9.092e-5
-1.713	-9.776e-5	-9.288e-5
-1.708	-9.687e-5	-9.482e-5
-1.703	-9.599e-5	-9.674e-5
-1.698	-9.511e-5	-9.864e-5
-1.693	-9.423e-5	-1.005e-4
-1.688	-9.337e-5	-1.024e-4
-1.683	-9.251e-5	-1.042e-4
-1.678	-9.167e-5	-1.061e-4
-1.673	-9.085e-5	-1.079e-4
-1.668	-9.004e-5	-1.097e-4
-1.663	-8.922e-5	-1.115e-4
-1.658	-8.840e-5	-1.132e-4
-1.653	-8.759e-5	-1.150e-4
-1.648	-8.678e-5	-1.167e-4
-1.643	-8.599e-5	-1.185e-4
-1.638	-8.522e-5	-1.202e-4
-1.633	-8.443e-5	-1.218e-4
-1.628	-8.365e-5	-1.235e-4
-1.623	-8.286e-5	-1.252e-4
-1.618	-8.207e-5	-1.268e-4
-1.613	-8.128e-5	-1.284e-4
-1.608	-8.052e-5	-1.301e-4
-1.603	-7.978e-5	-1.316e-4
-1.598	-7.905e-5	-1.332e-4
-1.593	-7.832e-5	-1.348e-4
-1.588	-7.758e-5	-1.363e-4
-1.583	-7.686e-5	-1.379e-4
-1.578	-7.615e-5	-1.394e-4
-1.573	-7.544e-5	-1.409e-4
-1.568	-7.471e-5	-1.424e-4
-1.563	-7.397e-5	-1.439e-4
-1.558	-7.324e-5	-1.454e-4
-1.553	-7.251e-5	-1.468e-4
-1.548	-7.179e-5	-1.482e-4
-1.543	-7.108e-5	-1.497e-4
-1.538	-7.036e-5	-1.511e-4
-1.533	-6.963e-5	-1.525e-4
-1.528	-6.891e-5	-1.538e-4
-1.523	-6.817e-5	-1.552e-4
-1.518	-6.740e-5	-1.566e-4
-1.513	-6.662e-5	-1.579e-4
-1.508	-6.583e-5	-1.592e-4
-1.503	-6.503e-5	-1.605e-4
-1.498	-6.422e-5	-1.618e-4
-1.493	-6.338e-5	-1.631e-4
-1.488	-6.251e-5	-1.643e-4
-1.483	-6.161e-5	-1.655e-4
-1.478	-6.069e-5	-1.667e-4
-1.473	-5.972e-5	-1.679e-4
-1.468	-5.871e-5	-1.691e-4
-1.463	-5.766e-5	-1.703e-4
-1.458	-5.658e-5	-1.714e-4
-1.453	-5.547e-5	-1.725e-4
-1.448	-5.434e-5	-1.736e-4
-1.443	-5.317e-5	-1.747e-4
-1.438	-5.197e-5	-1.757e-4
-1.433	-5.071e-5	-1.767e-4
-1.428	-4.939e-5	-1.777e-4
-1.423	-4.803e-5	-1.787e-4
-1.418	-4.662e-5	-1.796e-4
-1.413	-4.520e-5	-1.805e-4
-1.408	-4.378e-5	-1.814e-4
-1.403	-4.235e-5	-1.822e-4
-1.398	-4.090e-5	-1.830e-4
-1.393	-3.941e-5	-1.838e-4
-1.388	-3.787e-5	-1.846e-4
-1.383	-3.633e-5	-1.853e-4
-1.378	-3.480e-5	-1.860e-4
-1.373	-3.326e-5	-1.867e-4
-1.368	-3.176e-5	-1.873e-4
-1.363	-3.025e-5	-1.879e-4
-1.358	-2.874e-5	-1.885e-4
-1.353	-2.724e-5	-1.890e-4
-1.348	-2.575e-5	-1.895e-4
-1.343	-2.426e-5	-1.900e-4
-1.338	-2.281e-5	-1.905e-4
-1.333	-2.140e-5	-1.909e-4
-1.328	-2.001e-5	-1.913e-4
-1.323	-1.865e-5	-1.917e-4
-1.318	-1.732e-5	-1.920e-4
-1.313	-1.601e-5	-1.924e-4
-1.308	-1.475e-5	-1.927e-4
-1.303	-1.354e-5	-1.929e-4
-1.298	-1.237e-5	-1.932e-4
-1.293	-1.124e-5	-1.934e-4
-1.288	-1.014e-5	-1.936e-4
-1.283	-9.075e-6	-1.938e-4
-1.278	-8.049e-6	-1.939e-4
-1.273	-7.053e-6	-1.941e-4
-1.268	-6.073e-6	-1.942e-4
-1.263	-5.117e-6	-1.943e-4
-1.258	-4.192e-6	-1.944e-4
-1.253	-3.307e-6	-1.945e-4
-1.248	-2.464e-6	-1.945e-4
-1.243	-1.644e-6	-1.945e-4
-1.238	-8.198e-7	-1.946e-4
-1.233	1.985e-8	-1.946e-4
-1.228	8.760e-7	-1.945e-4
-1.223	1.726e-6	-1.945e-4
-1.218	2.576e-6	-1.945e-4
-1.213	3.426e-6	-1.944e-4
-1.208	4.279e-6	-1.943e-4
-1.203	5.172e-6	-1.942e-4
-1.198	6.114e-6	-1.941e-4
-1.193	7.089e-6	-1.939e-4
-1.188	8.120e-6	-1.938e-4
-1.183	9.195e-6	-1.936e-4
-1.178	1.031e-5	-1.934e-4
-1.173	1.153e-5	-1.931e-4
-1.168	1.286e-5	-1.929e-4
-1.163	1.427e-5	-1.926e-4
-1.158	1.578e-5	-1.923e-4
-1.153	1.738e-5	-1.919e-4
-1.148	1.908e-5	-1.916e-4
-1.143	2.093e-5	-1.911e-4
-1.138	2.292e-5	-1.907e-4
-1.133	2.507e-5	-1.902e-4
-1.128	2.740e-5	-1.896e-4
-1.123	2.988e-5	-1.890e-4
-1.118	3.256e-5	-1.884e-4
-1.113	3.542e-5	-1.877e-4
-1.108	3.845e-5	-1.869e-4
-1.103	4.166e-5	-1.861e-4
-1.098	4.507e-5	-1.852e-4
-1.093	4.868e-5	-1.842e-4
-1.088	5.251e-5	-1.831e-4
-1.083	5.656e-5	-1.820e-4
-1.078	6.077e-5	-1.808e-4
-1.073	6.514e-5	-1.795e-4
-1.068	6.970e-5	-1.781e-4
-1.063	7.437e-5	-1.766e-4
-1.058	7.921e-5	-1.750e-4
-1.053	8.419e-5	-1.733e-4
-1.048	8.922e-5	-1.716e-4
-1.043	9.435e-5	-1.697e-4
-1.038	9.956e-5	-1.677e-4
-1.033	1.048e-4	-1.656e-4
-1.028	1.100e-4	-1.634e-4
-1.023	1.152e-4	-1.611e-4
-1.018	1.203e-4	-1.587e-4
-1.013	1.254e-4	-1.562e-4
-1.008	1.303e-4	-1.536e-4
-1.003	1.351e-4	-1.509e-4
-0.998	1.396e-4	-1.481e-4
-0.993	1.439e-4	-1.452e-4
-0.988	1.479e-4	-1.422e-4
-0.983	1.515e-4	-1.392e-4
-0.978	1.549e-4	-1.361e-4
-0.973	1.579e-4	-1.330e-4
-0.968	1.605e-4	-1.297e-4
-0.963	1.628e-4	-1.265e-4
-0.958	1.646e-4	-1.232e-4
-0.953	1.660e-4	-1.199e-4
-0.948	1.671e-4	-1.165e-4
-0.943	1.679e-4	-1.132e-4
-0.938	1.682e-4	-1.098e-4
-0.933	1.682e-4	-1.064e-4
-0.928	1.678e-4	-1.031e-4
-0.923	1.671e-4	-9.974e-5
-0.918	1.662e-4	-9.642e-5
-0.913	1.651e-4	-9.312e-5
-0.908	1.637e-4	-8.984e-5
-0.903	1.621e-4	-8.660e-5
-0.898	1.604e-4	-8.340e-5
-0.893	1.585e-4	-8.023e-5
-0.888	1.565e-4	-7.710e-5
-0.883	1.544e-4	-7.401e-5
-0.878	1.523e-4	-7.096e-5
-0.873	1.501e-4	-6.796e-5
-0.868	1.478e-4	-6.500e-5
-0.863	1.456e-4	-6.209e-5
-0.858	1.434e-4	-5.922e-5
-0.853	1.412e-4	-5.640e-5
-0.848	1.390e-4	-5.362e-5
-0.843	1.368e-4	-5.089e-5
-0.838	1.346e-4	-4.819e-5
-0.833	1.325e-4	-4.554e-5
-0.828	1.304e-4	-4.293e-5
-0.823	1.284e-4	-4.037e-5
-0.818	1.264e-4	-3.784e-5
-0.813	1.245e-4	-3.535e-5
-0.808	1.226e-4	-3.290e-5
-0.803	1.208e-4	-3.048e-5
-0.798	1.190e-4	-2.810e-5
-0.793	1.172e-4	-2.576e-5
-0.788	1.155e-4	-2.345e-5
-0.783	1.139e-4	-2.117e-5
-0.778	1.123e-4	-1.892e-5
-0.773	1.108e-4	-1.671e-5
-0.768	1.093e-4	-1.452e-5
-0.763	1.078e-4	-1.237e-5
-0.758	1.064e-4	-1.024e-5
-0.753	1.051e-4	-8.137e-6
-0.748	1.038e-4	-6.062e-6
-0.743	1.025e-4	-4.012e-6
-0.738	1.013e-4	-1.987e-6
-0.733	1.001e-4	1.473e-8
-0.728	9.892e-5	1.993e-6
-0.723	9.779e-5	3.949e-6
-0.718	9.667e-5	5.882e-6
-0.713	9.558e-5	7.794e-6
-0.708	9.452e-5	9.684e-6
-0.703	9.350e-5	1.155e-5
-0.698	9.250e-5	1.340e-5
-0.693	9.153e-5	1.523e-5
-0.688	9.059e-5	1.705e-5
-0.683	8.967e-5	1.884e-5
-0.678	8.877e-5	2.062e-5
-0.673	8.788e-5	2.237e-5
-0.668	8.701e-5	2.411e-5
-0.663	8.616e-5	2.584e-5
-0.658	8.533e-5	2.754e-5
-0.653	8.452e-5	2.923e-5
-0.648	8.372e-5	3.091e-5
-0.643	8.293e-5	3.257e-5
-0.638	8.215e-5	3.421e-5
-0.633	8.137e-5	3.584e-5
-0.628	8.061e-5	3.745e-5
-0.623	7.986e-5	3.905e-5
-0.618	7.915e-5	4.063e-5
-0.613	7.845e-5	4.220e-5
-0.608	7.777e-5	4.375e-5
-0.603	7.710e-5	4.530e-5
-0.598	7.643e-5	4.682e-5
-0.593	7.576e-5	4.834e-5
-0.588	7.512e-5	4.984e-5
-0.583	7.450e-5	5.133e-5
-0.578	7.388e-5	5.281e-5
-0.573	7.329e-5	5.428e-5
-0.568	7.271e-5	5.573e-5
-0.563	7.212e-5	5.717e-5
-0.558	7.155e-5	5.860e-5
-0.553	7.098e-5	6.002e-5
-0.548	7.041e-5	6.143e-5
-0.543	6.986e-5	6.283e-5
-0.538	6.931e-5	6.421e-5
-0.533	6.877e-5	6.559e-5
-0.528	6.827e-5	6.695e-5
-0.523	6.778e-5	6.831e-5
-0.518	6.730e-5	6.966e-5
-0.513	6.684e-5	7.099e-5
-0.508	6.637e-5	7.232e-5
-0.503	6.590e-5	7.364e-5
-0.498	6.545e-5	7.495e-5
-0.493	6.500e-5	7.625e-5
-0.488	6.455e-5	7.754e-5
-0.483	6.413e-5	7.882e-5
-0.478	6.370e-5	8.010e-5
-0.473	6.329e-5	8.136e-5
-0.468	6.288e-5	8.262e-5
-0.463	6.248e-5	8.387e-5
-0.458	6.209e-5	8.511e-5
-0.453	6.173e-5	8.634e-5
-0.448	6.136e-5	8.757e-5
-0.443	6.099e-5	8.879e-5
-0.438	6.061e-5	9.000e-5
-0.433	6.024e-5	9.121e-5
-0.428	5.987e-5	9.241e-5
-0.423	5.952e-5	9.360e-5
-0.418	5.919e-5	9.478e-5
-0.413	5.886e-5	9.596e-5
-0.408	5.853e-5	9.713e-5
-0.403	5.819e-5	9.829e-5
-0.398	5.787e-5	9.945e-5
-0.393	5.755e-5	1.006e-4
-0.388	5.723e-5	1.017e-4
-0.383	5.693e-5	1.029e-4
-0.378	5.663e-5	1.040e-4
-0.373	5.633e-5	1.051e-4
-0.368	5.604e-5	1.063e-4
-0.363	5.576e-5	1.074e-4
-0.358	5.547e-5	1.085e-4
-0.353	5.519e-5	1.096e-4
-0.348	5.490e-5	1.107e-4
-0.343	5.463e-5	1.118e-4
-0.338	5.437e-5	1.129e-4
-0.333	5.411e-5	1.140e-4
-0.328	5.385e-5	1.150e-4
-0.323	5.359e-5	1.161e-4
-0.318	5.333e-5	1.172e-4
-0.313	5.308e-5	1.182e-4
-0.308	5.284e-5	1.193e-4
-0.303	5.261e-5	1.203e-4
-0.298	5.239e-5	1.214e-4
-0.293	5.216e-5	1.224e-4
-0.288	5.194e-5	1.235e-4
-0.283	5.171e-5	1.245e-4
-0.278	5.149e-5	1.255e-4
-0.273	5.127e-5	1.266e-4
-0.268	5.106e-5	1.276e-4
-0.263	5.085e-5	1.286e-4
-0.258	5.065e-5	1.296e-4
-0.253	5.046e-5	1.306e-4
-0.248	5.026e-5	1.316e-4
-0.243	5.006e-5	1.326e-4
-0.238	4.985e-5	1.336e-4
-0.233	4.965e-5	1.346e-4
-0.228	4.947e-5	1.356e-4
-0.223	4.930e-5	1.366e-4
-0.218	4.913e-5	1.376e-4
-0.213	4.895e-5	1.386e-4
-0.208	4.876e-5	1.395e-4
-0.203	4.856e-5	1.405e-4
-0.202	4.698e-5	9.396e-7
-0.207	4.625e-5	1.865e-6
-0.212	4.558e-5	2.776e-6
-0.217	4.497e-5	3.676e-6
-0.222	4.443e-5	4.564e-6
-0.227	4.392e-5	5.443e-6
-0.232	4.344e-5	6.312e-6
-0.237	4.296e-5	7.171e-6
-0.242	4.252e-5	8.021e-6
-0.247	4.210e-5	8.863e-6
-0.252	4.170e-5	9.697e-6
-0.257	4.131e-5	1.052e-5
-0.262	4.093e-5	1.134e-5
-0.267	4.056e-5	1.215e-5
-0.272	4.021e-5	1.296e-5
-0.277	3.986e-5	1.375e-5
-0.282	3.952e-5	1.454e-5
-0.287	3.918e-5	1.533e-5
-0.292	3.886e-5	1.611e-5
-0.297	3.854e-5	1.688e-5
-0.302	3.822e-5	1.764e-5
-0.307	3.791e-5	1.840e-5
-0.312	3.762e-5	1.915e-5
-0.317	3.734e-5	1.990e-5
-0.322	3.705e-5	2.064e-5
-0.327	3.676e-5	2.137e-5
-0.332	3.648e-5	2.210e-5
-0.337	3.620e-5	2.283e-5
-0.342	3.594e-5	2.355e-5
-0.347	3.568e-5	2.426e-5
-0.352	3.542e-5	2.497e-5
-0.357	3.514e-5	2.567e-5
-0.362	3.488e-5	2.637e-5
-0.367	3.462e-5	2.706e-5
-0.372	3.438e-5	2.775e-5
-0.377	3.414e-5	2.843e-5
-0.382	3.390e-5	2.911e-5
-0.387	3.366e-5	2.978e-5
-0.392	3.342e-5	3.045e-5
-0.397	3.318e-5	3.112e-5
-0.402	3.295e-5	3.177e-5
-0.407	3.271e-5	3.243e-5
-0.412	3.249e-5	3.308e-5
-0.417	3.227e-5	3.372e-5
-0.422	3.204e-5	3.436e-5
-0.427	3.181e-5	3.500e-5
-0.432	3.157e-5	3.563e-5
-0.437	3.134e-5	3.626e-5
-0.442	3.113e-5	3.688e-5
-0.447	3.092e-5	3.750e-5
-0.452	3.071e-5	3.811e-5
-0.457	3.049e-5	3.872e-5
-0.462	3.028e-5	3.933e-5
-0.467	3.005e-5	3.993e-5
-0.472	2.985e-5	4.053e-5
-0.477	2.963e-5	4.112e-5
-0.482	2.941e-5	4.171e-5
-0.487	2.920e-5	4.229e-5
-0.492	2.898e-5	4.287e-5
-0.497	2.876e-5	4.345e-5
-0.502	2.855e-5	4.402e-5
-0.507	2.833e-5	4.458e-5
-0.512	2.812e-5	4.515e-5
-0.517	2.791e-5	4.570e-5
-0.522	2.770e-5	4.626e-5
-0.527	2.749e-5	4.681e-5
-0.532	2.728e-5	4.735e-5
-0.537	2.707e-5	4.790e-5
-0.542	2.687e-5	4.843e-5
-0.547	2.666e-5	4.897e-5
-0.552	2.646e-5	4.950e-5
-0.557	2.626e-5	5.002e-5
-0.562	2.606e-5	5.054e-5
-0.567	2.585e-5	5.106e-5
-0.572	2.565e-5	5.157e-5
-0.577	2.544e-5	5.208e-5
-0.582	2.523e-5	5.259e-5
-0.587	2.502e-5	5.309e-5
-0.592	2.482e-5	5.358e-5
-0.597	2.463e-5	5.407e-5
-0.602	2.444e-5	5.456e-5
-0.607	2.425e-5	5.505e-5
-0.612	2.405e-5	5.553e-5
-0.617	2.384e-5	5.601e-5
-0.622	2.363e-5	5.648e-5
-0.627	2.343e-5	5.695e-5
-0.632	2.324e-5	5.741e-5
-0.637	2.306e-5	5.787e-5
-0.642	2.287e-5	5.833e-5
-0.647	2.268e-5	5.878e-5
-0.652	2.249e-5	5.923e-5
-0.657	2.230e-5	5.968e-5
-0.662	2.213e-5	6.012e-5
-0.667	2.194e-5	6.056e-5
-0.672	2.175e-5	6.100e-5
-0.677	2.155e-5	6.143e-5
-0.682	2.135e-5	6.185e-5
-0.687	2.118e-5	6.228e-5
-0.692	2.101e-5	6.270e-5
-0.697	2.084e-5	6.311e-5
-0.702	2.066e-5	6.353e-5
-0.707	2.046e-5	6.394e-5
-0.712	2.025e-5	6.434e-5
-0.717	2.007e-5	6.474e-5
-0.722	1.990e-5	6.514e-5
-0.727	1.974e-5	6.554e-5
-0.732	1.959e-5	6.593e-5
-0.737	1.940e-5	6.632e-5
-0.742	1.920e-5	6.670e-5
-0.747	1.899e-5	6.708e-5
-0.752	1.879e-5	6.746e-5
-0.757	1.859e-5	6.783e-5
-0.762	1.842e-5	6.820e-5
-0.767	1.822e-5	6.856e-5
-0.772	1.802e-5	6.892e-5
-0.777	1.783e-5	6.928e-5
-0.782	1.762e-5	6.963e-5
-0.787	1.741e-5	6.998e-5
-0.792	1.720e-5	7.032e-5
-0.797	1.699e-5	7.066e-5
-0.802	1.678e-5	7.100e-5
-0.807	1.657e-5	7.133e-5
-0.812	1.635e-5	7.165e-5
-0.817	1.613e-5	7.198e-5
-0.822	1.591e-5	7.230e-5
-0.827	1.567e-5	7.261e-5
-0.832	1.545e-5	7.292e-5
-0.837	1.522e-5	7.322e-5
-0.842	1.500e-5	7.352e-5
-0.847	1.478e-5	7.382e-5
-0.852	1.455e-5	7.411e-5
-0.857	1.432e-5	7.440e-5
-0.862	1.409e-5	7.468e-5
-0.867	1.384e-5	7.495e-5
-0.872	1.359e-5	7.523e-5
-0.877	1.333e-5	7.549e-5
-0.882	1.307e-5	7.575e-5
-0.887	1.281e-5	7.601e-5
-0.892	1.254e-5	7.626e-5
-0.897	1.227e-5	7.651e-5
-0.902	1.198e-5	7.675e-5
-0.907	1.170e-5	7.698e-5
-0.912	1.141e-5	7.721e-5
-0.917	1.112e-5	7.743e-5
-0.922	1.082e-5	7.765e-5
-0.927	1.050e-5	7.786e-5
-0.932	1.016e-5	7.806e-5
-0.937	9.810e-6	7.826e-5
-0.942	9.459e-6	7.845e-5
-0.947	9.102e-6	7.863e-5
-0.952	8.744e-6	7.880e-5
-0.957	8.377e-6	7.897e-5
-0.962	7.996e-6	7.913e-5
-0.967	7.599e-6	7.928e-5
-0.972	7.191e-6	7.943e-5
-0.977	6.763e-6	7.956e-5
-0.982	6.327e-6	7.969e-5
-0.987	5.887e-6	7.981e-5
-0.992	5.446e-6	7.991e-5
-0.997	4.996e-6	8.001e-5
-1.002	4.559e-6	8.011e-5
-1.007	4.104e-6	8.019e-5
-1.012	3.644e-6	8.026e-5
-1.017	3.177e-6	8.032e-5
-1.022	2.701e-6	8.038e-5
-1.027	2.228e-6	8.042e-5
-1.032	1.769e-6	8.046e-5
-1.037	1.301e-6	8.048e-5
-1.042	8.314e-7	8.050e-5
-1.047	3.577e-7	8.051e-5
-1.052	-1.228e-7	8.051e-5
-1.057	-5.888e-7	8.049e-5
-1.062	-1.049e-6	8.047e-5
-1.067	-1.510e-6	8.044e-5
-1.072	-1.966e-6	8.040e-5
-1.077	-2.421e-6	8.035e-5
-1.082	-2.877e-6	8.030e-5
-1.087	-3.330e-6	8.023e-5
-1.092	-3.789e-6	8.015e-5
-1.097	-4.257e-6	8.007e-5
-1.102	-4.728e-6	7.997e-5
-1.107	-5.202e-6	7.987e-5
-1.112	-5.680e-6	7.976e-5
-1.117	-6.170e-6	7.963e-5
-1.122	-6.682e-6	7.950e-5
-1.127	-7.218e-6	7.936e-5
-1.132	-7.783e-6	7.920e-5
-1.137	-8.371e-6	7.903e-5
-1.142	-8.981e-6	7.885e-5
-1.147	-9.622e-6	7.866e-5
-1.152	-1.030e-5	7.845e-5
-1.157	-1.104e-5	7.823e-5
-1.162	-1.184e-5	7.800e-5
-1.167	-1.273e-5	7.774e-5
-1.172	-1.368e-5	7.747e-5
-1.177	-1.471e-5	7.717e-5
-1.182	-1.582e-5	7.686e-5
-1.187	-1.702e-5	7.652e-5
-1.192	-1.832e-5	7.615e-5
-1.197	-1.975e-5	7.576e-5
-1.202	-2.131e-5	7.533e-5
-1.207	-2.300e-5	7.487e-5
-1.212	-2.485e-5	7.437e-5
-1.217	-2.684e-5	7.384e-5
-1.222	-2.900e-5	7.326e-5
-1.227	-3.134e-5	7.263e-5
-1.232	-3.385e-5	7.195e-5
-1.237	-3.656e-5	7.122e-5
-1.242	-3.950e-5	7.043e-5
-1.247	-4.264e-5	6.958e-5
-1.252	-4.604e-5	6.866e-5
-1.257	-4.971e-5	6.766e-5
-1.262	-5.361e-5	6.659e-5
-1.267	-5.775e-5	6.544e-5
-1.272	-6.215e-5	6.419e-5
-1.277	-6.678e-5	6.286e-5
-1.282	-7.170e-5	6.142e-5
-1.287	-7.691e-5	5.989e-5
-1.292	-8.239e-5	5.824e-5
-1.297	-8.810e-5	5.648e-5
-1.302	-9.407e-5	5.459e-5
-1.307	-1.002e-4	5.259e-5
-1.312	-1.067e-4	5.046e-5
-1.317	-1.133e-4	4.819e-5
-1.322	-1.201e-4	4.579e-5
-1.327	-1.271e-4	4.325e-5
-1.332	-1.342e-4	4.056e-5
-1.337	-1.413e-4	3.774e-5
-1.342	-1.486e-4	3.476e-5
-1.347	-1.559e-4	3.165e-5
-1.352	-1.632e-4	2.838e-5
-1.357	-1.702e-4	2.498e-5
-1.362	-1.768e-4	2.144e-5
-1.367	-1.830e-4	1.778e-5
-1.372	-1.887e-4	1.401e-5
-1.377	-1.943e-4	1.012e-5
-1.382	-1.996e-4	6.131e-6
-1.387	-2.048e-4	2.036e-6
-1.392	-2.097e-4	-2.159e-6
-1.397	-2.144e-4	-6.447e-6
-1.402	-2.188e-4	-1.082e-5
-1.407	-2.228e-4	-1.528e-5
-1.412	-2.265e-4	-1.981e-5
-1.417	-2.298e-4	-2.440e-5
-1.422	-2.328e-4	-2.906e-5
-1.427	-2.354e-4	-3.377e-5
-1.432	-2.376e-4	-3.852e-5
-1.437	-2.393e-4	-4.331e-5
-1.442	-2.407e-4	-4.812e-5
-1.447	-2.415e-4	-5.295e-5
-1.452	-2.420e-4	-5.779e-5
-1.457	-2.420e-4	-6.263e-5
-1.462	-2.415e-4	-6.746e-5
-1.467	-2.406e-4	-7.227e-5
-1.472	-2.392e-4	-7.705e-5
-1.477	-2.375e-4	-8.180e-5
-1.482	-2.354e-4	-8.651e-5
-1.487	-2.331e-4	-9.117e-5
-1.492	-2.305e-4	-9.578e-5
-1.497	-2.277e-4	-1.003e-4
-1.502	-2.246e-4	-1.048e-4
-1.507	-2.214e-4	-1.093e-4
-1.512	-2.182e-4	-1.136e-4
-1.517	-2.151e-4	-1.179e-4
-1.522	-2.120e-4	-1.222e-4
-1.527	-2.091e-4	-1.263e-4
-1.532	-2.063e-4	-1.305e-4
-1.537	-2.035e-4	-1.345e-4
-1.542	-2.008e-4	-1.386e-4
-1.547	-1.982e-4	-1.425e-4
-1.552	-1.957e-4	-1.464e-4
-1.557	-1.932e-4	-1.503e-4
-1.562	-1.909e-4	-1.541e-4
-1.567	-1.888e-4	-1.579e-4
-1.572	-1.867e-4	-1.616e-4
-1.577	-1.846e-4	-1.653e-4
-1.582	-1.827e-4	-1.690e-4
-1.587	-1.808e-4	-1.726e-4
-1.592	-1.790e-4	-1.762e-4
-1.597	-1.773e-4	-1.797e-4
-1.602	-1.756e-4	-1.832e-4
-1.607	-1.740e-4	-1.867e-4
-1.612	-1.725e-4	-1.902e-4
-1.617	-1.710e-4	-1.936e-4
-1.622	-1.696e-4	-1.970e-4
-1.627	-1.682e-4	-2.003e-4
-1.632	-1.669e-4	-2.037e-4
-1.637	-1.657e-4	-2.070e-4
-1.642	-1.645e-4	-2.103e-4
-1.647	-1.633e-4	-2.135e-4
-1.652	-1.621e-4	-2.168e-4
-1.657	-1.610e-4	-2.200e-4
-1.662	-1.599e-4	-2.232e-4
-1.667	-1.588e-4	-2.264e-4
-1.672	-1.578e-4	-2.295e-4
-1.677	-1.568e-4	-2.327e-4
-1.682	-1.559e-4	-2.358e-4
-1.687	-1.550e-4	-2.389e-4
-1.692	-1.541e-4	-2.420e-4
-1.697	-1.533e-4	-2.450e-4
-1.702	-1.525e-4	-2.481e-4
-1.707	-1.517e-4	-2.511e-4
-1.712	-1.509e-4	-2.541e-4
-1.717	-1.502e-4	-2.571e-4
-1.722	-1.496e-4	-2.601e-4
-1.727	-1.490e-4	-2.631e-4
-1.732	-1.485e-4	-2.661e-4
-1.737	-1.480e-4	-2.690e-4
-1.742	-1.475e-4	-2.720e-4
-1.747	-1.471e-4	-2.749e-4
-1.752	-1.467e-4	-2.779e-4
-1.757	-1.464e-4	-2.808e-4
-1.762	-1.461e-4	-2.837e-4
-1.767	-1.459e-4	-2.866e-4
-1.772	-1.457e-4	-2.895e-4
-1.777	-1.456e-4	-2.925e-4
-1.782	-1.455e-4	-2.954e-4
-1.787	-1.455e-4	-2.983e-4
-1.792	-1.455e-4	-3.012e-4
-1.797	-1.455e-4	-3.041e-4
-1.802	-1.456e-4	-3.070e-4
-1.807	-1.458e-4	-3.099e-4
-1.812	-1.460e-4	-3.129e-4
-1.817	-1.463e-4	-3.158e-4
-1.822	-1.466e-4	-3.187e-4
-1.827	-1.469e-4	-3.216e-4
-1.832	-1.473e-4	-3.246e-4
-1.837	-1.478e-4	-3.275e-4
-1.842	-1.483e-4	-3.305e-4
-1.847	-1.488e-4	-3.335e-4
-1.852	-1.495e-4	-3.365e-4
-1.857	-1.502e-4	-3.395e-4
-1.862	-1.509e-4	-3.425e-4
-1.867	-1.517e-4	-3.455e-4
-1.872	-1.525e-4	-3.486e-4
-1.877	-1.534e-4	-3.517e-4
-1.882	-1.545e-4	-3.547e-4
-1.887	-1.555e-4	-3.579e-4
-1.892	-1.567e-4	-3.610e-4
-1.897	-1.579e-4	-3.641e-4
-1.898	-1.517e-4	-3.033e-6
-1.893	-1.473e-4	-5.980e-6
-1.888	-1.434e-4	-8.848e-6
-1.883	-1.398e-4	-1.164e-5
-1.878	-1.367e-4	-1.438e-5
-1.873	-1.338e-4	-1.705e-5
-1.868	-1.312e-4	-1.968e-5
-1.863	-1.287e-4	-2.225e-5
-1.858	-1.264e-4	-2.478e-5
-1.853	-1.241e-4	-2.726e-5
-1.848	-1.220e-4	-2.970e-5
-1.843	-1.200e-4	-3.210e-5
-1.838	-1.181e-4	-3.447e-5
-1.833	-1.162e-4	-3.679e-5
-1.828	-1.144e-4	-3.908e-5
-1.823	-1.127e-4	-4.133e-5
-1.818	-1.110e-4	-4.355e-5
-1.813	-1.095e-4	-4.574e-5
-1.808	-1.079e-4	-4.790e-5
-1.803	-1.063e-4	-5.003e-5
-1.798	-1.048e-4	-5.212e-5
-1.793	-1.034e-4	-5.419e-5
-1.788	-1.020e-4	-5.623e-5
-1.783	-1.007e-4	-5.825e-5
-1.778	-9.940e-5	-6.023e-5
-1.773	-9.811e-5	-6.220e-5
-1.768	-9.685e-5	-6.413e-5
-1.763	-9.567e-5	-6.605e-5
-1.758	-9.452e-5	-6.794e-5
-1.753	-9.344e-5	-6.980e-5
-1.748	-9.234e-5	-7.165e-5
-1.743	-9.127e-5	-7.348e-5
-1.738	-9.024e-5	-7.528e-5
-1.733	-8.923e-5	-7.707e-5
-1.728	-8.824e-5	-7.883e-5
-1.723	-8.726e-5	-8.058e-5
-1.718	-8.626e-5	-8.230e-5
-1.713	-8.531e-5	-8.401e-5
-1.708	-8.440e-5	-8.570e-5
-1.703	-8.353e-5	-8.737e-5
-1.698	-8.269e-5	-8.902e-5
-1.693	-8.187e-5	-9.066e-5
-1.688	-8.106e-5	-9.228e-5
-1.683	-8.027e-5	-9.388e-5
-1.678	-7.949e-5	-9.547e-5
-1.673	-7.873e-5	-9.705e-5
-1.668	-7.797e-5	-9.861e-5
-1.663	-7.724e-5	-1.002e-4
-1.658	-7.653e-5	-1.017e-4
-1.653	-7.583e-5	-1.032e-4
-1.648	-7.515e-5	-1.047e-4
-1.643	-7.448e-5	-1.062e-4
-1.638	-7.380e-5	-1.077e-4
-1.633	-7.314e-5	-1.091e-4
-1.628	-7.247e-5	-1.106e-4
-1.623	-7.181e-5	-1.120e-4
-1.618	-7.116e-5	-1.134e-4
-1.613	-7.051e-5	-1.149e-4
-1.608	-6.986e-5	-1.162e-4
-1.603	-6.921e-5	-1.176e-4
-1.598	-6.857e-5	-1.190e-4
-1.593	-6.792e-5	-1.204e-4
-1.588	-6.727e-5	-1.217e-4
-1.583	-6.663e-5	-1.230e-4
-1.578	-6.597e-5	-1.244e-4
-1.573	-6.529e-5	-1.257e-4
-1.568	-6.461e-5	-1.270e-4
-1.563	-6.392e-5	-1.282e-4
-1.558	-6.324e-5	-1.295e-4
-1.553	-6.259e-5	-1.308e-4
-1.548	-6.191e-5	-1.320e-4
-1.543	-6.119e-5	-1.332e-4
-1.538	-6.043e-5	-1.344e-4
-1.533	-5.965e-5	-1.356e-4
-1.528	-5.888e-5	-1.368e-4
-1.523	-5.815e-5	-1.380e-4
-1.518	-5.738e-5	-1.391e-4
-1.513	-5.659e-5	-1.402e-4
-1.508	-5.579e-5	-1.414e-4
-1.503	-5.498e-5	-1.425e-4
-1.498	-5.416e-5	-1.435e-4
-1.493	-5.332e-5	-1.446e-4
-1.488	-5.244e-5	-1.456e-4
-1.483	-5.154e-5	-1.467e-4
-1.478	-5.063e-5	-1.477e-4
-1.473	-4.969e-5	-1.487e-4
-1.468	-4.872e-5	-1.497e-4
-1.463	-4.771e-5	-1.506e-4
-1.458	-4.670e-5	-1.515e-4
-1.453	-4.570e-5	-1.525e-4
-1.448	-4.467e-5	-1.534e-4
-1.443	-4.358e-5	-1.542e-4
-1.438	-4.243e-5	-1.551e-4
-1.433	-4.126e-5	-1.559e-4
-1.428	-4.009e-5	-1.567e-4
-1.423	-3.893e-5	-1.575e-4
-1.418	-3.775e-5	-1.582e-4
-1.413	-3.651e-5	-1.590e-4
-1.408	-3.524e-5	-1.597e-4
-1.403	-3.396e-5	-1.604e-4
-1.398	-3.267e-5	-1.610e-4
-1.393	-3.139e-5	-1.616e-4
-1.388	-3.010e-5	-1.622e-4
-1.383	-2.879e-5	-1.628e-4
-1.378	-2.748e-5	-1.634e-4
-1.373	-2.619e-5	-1.639e-4
-1.368	-2.490e-5	-1.644e-4
-1.363	-2.363e-5	-1.649e-4
-1.358	-2.237e-5	-1.653e-4
-1.353	-2.111e-5	-1.657e-4
-1.348	-1.987e-5	-1.661e-4
-1.343	-1.866e-5	-1.665e-4
-1.338	-1.747e-5	-1.668e-4
-1.333	-1.632e-5	-1.672e-4
-1.328	-1.518e-5	-1.675e-4
-1.323	-1.406e-5	-1.678e-4
-1.318	-1.296e-5	-1.680e-4
-1.313	-1.191e-5	-1.683e-4
-1.308	-1.089e-5	-1.685e-4
-1.303	-9.914e-6	-1.687e-4
-1.298	-8.966e-6	-1.688e-4
-1.293	-8.040e-6	-1.690e-4
-1.288	-7.143e-6	-1.692e-4
-1.283	-6.278e-6	-1.693e-4
-1.278	-5.439e-6	-1.694e-4
-1.273	-4.630e-6	-1.695e-4
-1.268	-3.849e-6	-1.696e-4
-1.263	-3.081e-6	-1.696e-4
-1.258	-2.332e-6	-1.697e-4
-1.253	-1.593e-6	-1.697e-4
-1.248	-8.592e-7	-1.697e-4
-1.243	-1.349e-7	-1.697e-4
-1.238	5.789e-7	-1.697e-4
-1.233	1.293e-6	-1.697e-4
-1.228	2.009e-6	-1.696e-4
-1.223	2.741e-6	-1.696e-4
-1.218	3.499e-6	-1.695e-4
-1.213	4.284e-6	-1.694e-4
-1.208	5.093e-6	-1.693e-4
-1.203	5.937e-6	-1.692e-4
-1.198	6.821e-6	-1.691e-4
-1.193	7.757e-6	-1.689e-4
-1.188	8.764e-6	-1.687e-4
-1.183	9.850e-6	-1.685e-4
-1.178	1.101e-5	-1.683e-4
-1.173	1.226e-5	-1.681e-4
-1.168	1.360e-5	-1.678e-4
-1.163	1.505e-5	-1.675e-4
-1.158	1.662e-5	-1.672e-4
-1.153	1.832e-5	-1.668e-4
-1.148	2.015e-5	-1.664e-4
-1.143	2.212e-5	-1.660e-4
-1.138	2.425e-5	-1.655e-4
-1.133	2.653e-5	-1.649e-4
-1.128	2.899e-5	-1.644e-4
-1.123	3.164e-5	-1.637e-4
-1.118	3.447e-5	-1.630e-4
-1.113	3.751e-5	-1.623e-4
-1.108	4.073e-5	-1.615e-4
-1.103	4.414e-5	-1.606e-4
-1.098	4.778e-5	-1.596e-4
-1.093	5.161e-5	-1.586e-4
-1.088	5.563e-5	-1.575e-4
-1.083	5.986e-5	-1.563e-4
-1.078	6.425e-5	-1.550e-4
-1.073	6.879e-5	-1.536e-4
-1.068	7.353e-5	-1.522e-4
-1.063	7.841e-5	-1.506e-4
-1.058	8.341e-5	-1.489e-4
-1.053	8.858e-5	-1.472e-4
-1.048	9.386e-5	-1.453e-4
-1.043	9.919e-5	-1.433e-4
-1.038	1.046e-4	-1.412e-4
-1.033	1.099e-4	-1.390e-4
-1.028	1.151e-4	-1.367e-4
-1.023	1.204e-4	-1.343e-4
-1.018	1.256e-4	-1.318e-4
-1.013	1.308e-4	-1.292e-4
-1.008	1.357e-4	-1.265e-4
-1.003	1.405e-4	-1.236e-4
-0.998	1.449e-4	-1.207e-4
-0.993	1.492e-4	-1.178e-4
-0.988	1.531e-4	-1.147e-4
-0.983	1.567e-4	-1.116e-4
-0.978	1.600e-4	-1.084e-4
-0.973	1.629e-4	-1.051e-4
-0.968	1.654e-4	-1.018e-4
-0.963	1.675e-4	-9.845e-5
-0.958	1.691e-4	-9.507e-5
-0.953	1.704e-4	-9.166e-5
-0.948	1.713e-4	-8.824e-5
-0.943	1.718e-4	-8.480e-5
-0.938	1.720e-4	-8.136e-5
-0.933	1.718e-4	-7.792e-5
-0.928	1.713e-4	-7.450e-5
-0.923	1.704e-4	-7.109e-5
-0.918	1.692e-4	-6.771e-5
-0.913	1.678e-4	-6.435e-5
-0.908	1.662e-4	-6.103e-5
-0.903	1.644e-4	-5.774e-5
-0.898	1.624e-4	-5.449e-5
-0.893	1.604e-4	-5.128e-5
-0.888	1.583e-4	-4.812e-5
-0.883	1.562e-4	-4.499e-5
-0.878	1.539e-4	-4.191e-5
-0.873	1.517e-4	-3.888e-5
-0.868	1.494e-4	-3.589e-5
-0.863	1.471e-4	-3.295e-5
-0.858	1.449e-4	-3.005e-5
-0.853	1.426e-4	-2.720e-5
-0.848	1.404e-4	-2.439e-5
-0.843	1.382e-4	-2.163e-5
-0.838	1.361e-4	-1.891e-5
-0.833	1.340e-4	-1.623e-5
-0.828	1.319e-4	-1.359e-5
-0.823	1.299e-4	-1.099e-5
-0.818	1.279e-4	-8.433e-6
-0.813	1.259e-4	-5.914e-6
-0.808	1.240e-4	-3.434e-6
-0.803	1.222e-4	-9.899e-7
-0.798	1.204e-4	1.418e-6
-0.793	1.186e-4	3.790e-6
-0.788	1.169e-4	6.128e-6
-0.783	1.152e-4	8.433e-6
-0.778	1.136e-4	1.070e-5
-0.773	1.120e-4	1.295e-5
-0.768	1.105e-4	1.516e-5
-0.763	1.090e-4	1.734e-5
-0.758	1.076e-4	1.949e-5
-0.753	1.062e-4	2.161e-5
-0.748	1.048e-4	2.371e-5
-0.743	1.035e-4	2.578e-5
-0.738	1.022e-4	2.782e-5
-0.733	1.010e-4	2.984e-5
-0.728	9.975e-5	3.183e-5
-0.723	9.859e-5	3.381e-5
-0.718	9.745e-5	3.575e-5
-0.713	9.635e-5	3.768e-5
-0.708	9.530e-5	3.959e-5
-0.703	9.428e-5	4.147e-5
-0.698	9.330e-5	4.334e-5
-0.693	9.235e-5	4.519e-5
-0.688	9.143e-5	4.701e-5
-0.683	9.054e-5	4.883e-5
-0.678	8.967e-5	5.062e-5
-0.673	8.883e-5	5.240e-5
-0.668	8.802e-5	5.416e-5
-0.663	8.722e-5	5.590e-5
-0.658	8.644e-5	5.763e-5
-0.653	8.567e-5	5.934e-5
-0.648	8.492e-5	6.104e-5
-0.643	8.418e-5	6.272e-5
-0.638	8.346e-5	6.439e-5
-0.633	8.275e-5	6.605e-5
-0.628	8.207e-5	6.769e-5
-0.623	8.140e-5	6.932e-5
-0.618	8.073e-5	7.093e-5
-0.613	8.007e-5	7.253e-5
-0.608	7.942e-5	7.412e-5
-0.603	7.877e-5	7.570e-5
-0.598	7.815e-5	7.726e-5
-0.593	7.754e-5	7.881e-5
-0.588	7.696e-5	8.035e-5
-0.583	7.638e-5	8.188e-5
-0.578	7.581e-5	8.339e-5
-0.573	7.524e-5	8.490e-5
-0.568	7.468e-5	8.639e-5
-0.563	7.413e-5	8.788e-5
-0.558	7.358e-5	8.935e-5
-0.553	7.305e-5	9.081e-5
-0.548	7.253e-5	9.226e-5
-0.543	7.201e-5	9.370e-5
-0.538	7.151e-5	9.513e-5
-0.533	7.100e-5	9.655e-5
-0.528	7.052e-5	9.796e-5
-0.523	7.005e-5	9.936e-5
-0.518	6.960e-5	1.008e-4
-0.513	6.917e-5	1.021e-4
-0.508	6.874e-5	1.035e-4
-0.503	6.831e-5	1.049e-4
-0.498	6.790e-5	1.062e-4
-0.493	6.750e-5	1.076e-4
-0.488	6.710e-5	1.089e-4
-0.483	6.672e-5	1.103e-4
-0.478	6.635e-5	1.116e-4
-0.473	6.598e-5	1.129e-4
-0.468	6.562e-5	1.142e-4
-0.463	6.526e-5	1.155e-4
-0.458	6.491e-5	1.168e-4
-0.453	6.457e-5	1.181e-4
-0.448	6.423e-5	1.194e-4
-0.443	6.390e-5	1.207e-4
-0.438	6.358e-5	1.219e-4
-0.433	6.326e-5	1.232e-4
-0.428	6.295e-5	1.245e-4
-0.423	6.264e-5	1.257e-4
-0.418	6.234e-5	1.270e-4
-0.413	6.203e-5	1.282e-4
-0.408	6.173e-5	1.294e-4
-0.403	6.143e-5	1.307e-4
-0.398	6.114e-5	1.319e-4
-0.393	6.085e-5	1.331e-4
-0.388	6.056e-5	1.343e-4
-0.383	6.028e-5	1.355e-4
-0.378	6.001e-5	1.367e-4
-0.373	5.974e-5	1.379e-4
-0.368	5.947e-5	1.391e-4
-0.363	5.920e-5	1.403e-4
-0.358	5.893e-5	1.415e-4
-0.353	5.867e-5	1.427e-4
-0.348	5.840e-5	1.438e-4
-0.343	5.814e-5	1.450e-4
-0.338	5.788e-5	1.461e-4
-0.333	5.762e-5	1.473e-4
-0.328	5.738e-5	1.484e-4
-0.323	5.714e-5	1.496e-4
-0.318	5.690e-5	1.507e-4
-0.313	5.666e-5	1.519e-4
-0.308	5.642e-5	1.530e-4
-0.303	5.619e-5	1.541e-4
-0.298	5.595e-5	1.552e-4
-0.293	5.572e-5	1.563e-4
-0.288	5.549e-5	1.575e-4
-0.283	5.527e-5	1.586e-4
-0.278	5.507e-5	1.597e-4
-0.273	5.486e-5	1.608e-4
-0.268	5.464e-5	1.618e-4
-0.263	5.441e-5	1.629e-4
-0.258	5.418e-5	1.640e-4
-0.253	5.396e-5	1.651e-4
-0.248	5.375e-5	1.662e-4
-0.243	5.355e-5	1.672e-4
-0.238	5.336e-5	1.683e-4
-0.233	5.316e-5	1.694e-4
-0.228	5.296e-5	1.704e-4
-0.223	5.275e-5	1.715e-4
-0.218	5.255e-5	1.725e-4
-0.213	5.234e-5	1.736e-4
-0.208	5.214e-5	1.746e-4
-0.203	5.195e-5	1.757e-4
-0.202	5.017e-5	1.003e-6
-0.207	4.945e-5	1.992e-6
-0.212	4.877e-5	2.968e-6
-0.217	4.813e-5	3.930e-6
-0.222	4.754e-5	4.881e-6
-0.227	4.699e-5	5.821e-6
-0.232	4.648e-5	6.751e-6
-0.237	4.600e-5	7.671e-6
-0.242	4.553e-5	8.581e-6
-0.247	4.507e-5	9.483e-6
-0.252	4.462e-5	1.038e-5
-0.257	4.419e-5	1.126e-5
-0.262	4.377e-5	1.213e-5
-0.267	4.337e-5	1.300e-5
-0.272	4.298e-5	1.386e-5
-0.277	4.261e-5	1.471e-5
-0.282	4.224e-5	1.556e-5
-0.287	4.189e-5	1.640e-5
-0.292	4.153e-5	1.723e-5
-0.297	4.117e-5	1.805e-5
-0.302	4.081e-5	1.887e-5
-0.307	4.047e-5	1.968e-5
-0.312	4.014e-5	2.048e-5
-0.317	3.982e-5	2.127e-5
-0.322	3.950e-5	2.206e-5
-0.327	3.918e-5	2.285e-5
-0.332	3.885e-5	2.363e-5
-0.337	3.854e-5	2.440e-5
-0.342	3.823e-5	2.516e-5
-0.347	3.793e-5	2.592e-5
-0.352	3.763e-5	2.667e-5
-0.357	3.734e-5	2.742e-5
-0.362	3.704e-5	2.816e-5
-0.367	3.675e-5	2.889e-5
-0.372	3.646e-5	2.962e-5
-0.377	3.618e-5	3.035e-5
-0.382	3.590e-5	3.107e-5
-0.387	3.562e-5	3.178e-5
-0.392	3.535e-5	3.248e-5
-0.397	3.508e-5	3.319e-5
-0.402	3.481e-5	3.388e-5
-0.407	3.453e-5	3.457e-5
-0.412	3.426e-5	3.526e-5
-0.417	3.399e-5	3.594e-5
-0.422	3.372e-5	3.661e-5
-0.427	3.346e-5	3.728e-5
-0.432	3.320e-5	3.795e-5
-0.437	3.295e-5	3.860e-5
-0.442	3.269e-5	3.926e-5
-0.447	3.244e-5	3.991e-5
-0.452	3.218e-5	4.055e-5
-0.457	3.192e-5	4.119e-5
-0.462	3.167e-5	4.182e-5
-0.467	3.142e-5	4.245e-5
-0.472	3.117e-5	4.307e-5
-0.477	3.093e-5	4.369e-5
-0.482	3.069e-5	4.431e-5
-0.487	3.045e-5	4.492e-5
-0.492	3.021e-5	4.552e-5
-0.497	2.998e-5	4.612e-5
-0.502	2.974e-5	4.671e-5
-0.507	2.951e-5	4.730e-5
-0.512	2.927e-5	4.789e-5
-0.517	2.903e-5	4.847e-5
-0.522	2.879e-5	4.905e-5
-0.527	2.855e-5	4.962e-5
-0.532	2.831e-5	5.018e-5
-0.537	2.808e-5	5.075e-5
-0.542	2.784e-5	5.130e-5
-0.547	2.761e-5	5.185e-5
-0.552	2.738e-5	5.240e-5
-0.557	2.715e-5	5.294e-5
-0.562	2.692e-5	5.348e-5
-0.567	2.669e-5	5.402e-5
-0.572	2.645e-5	5.455e-5
-0.577	2.622e-5	5.507e-5
-0.582	2.598e-5	5.559e-5
-0.587	2.575e-5	5.610e-5
-0.592	2.552e-5	5.662e-5
-0.597	2.530e-5	5.712e-5
-0.602	2.507e-5	5.762e-5
-0.607	2.485e-5	5.812e-5
-0.612	2.462e-5	5.861e-5
-0.617	2.439e-5	5.910e-5
-0.622	2.417e-5	5.958e-5
-0.627	2.395e-5	6.006e-5
-0.632	2.374e-5	6.054e-5
-0.637	2.353e-5	6.101e-5
-0.642	2.332e-5	6.147e-5
-0.647	2.311e-5	6.194e-5
-0.652	2.289e-5	6.239e-5
-0.657	2.269e-5	6.285e-5
-0.662	2.249e-5	6.330e-5
-0.667	2.229e-5	6.374e-5
-0.672	2.209e-5	6.419e-5
-0.677	2.189e-5	6.462e-5
-0.682	2.170e-5	6.506e-5
-0.687	2.151e-5	6.549e-5
-0.692	2.131e-5	6.591e-5
-0.697	2.112e-5	6.634e-5
-0.702	2.093e-5	6.675e-5
-0.707	2.074e-5	6.717e-5
-0.712	2.055e-5	6.758e-5
-0.717	2.037e-5	6.799e-5
-0.722	2.018e-5	6.839e-5
-0.727	2.000e-5	6.879e-5
-0.732	1.982e-5	6.919e-5
-0.737	1.964e-5	6.958e-5
-0.742	1.946e-5	6.997e-5
-0.747	1.928e-5	7.036e-5
-0.752	1.911e-5	7.074e-5
-0.757	1.893e-5	7.112e-5
-0.762	1.875e-5	7.149e-5
-0.767	1.857e-5	7.186e-5
-0.772	1.838e-5	7.223e-5
-0.777	1.820e-5	7.259e-5
-0.782	1.802e-5	7.295e-5
-0.787	1.784e-5	7.331e-5
-0.792	1.765e-5	7.366e-5
-0.797	1.746e-5	7.401e-5
-0.802	1.725e-5	7.436e-5
-0.807	1.706e-5	7.470e-5
-0.812	1.686e-5	7.504e-5
-0.817	1.667e-5	7.537e-5
-0.822	1.649e-5	7.570e-5
-0.827	1.630e-5	7.603e-5
-0.832	1.609e-5	7.635e-5
-0.837	1.588e-5	7.667e-5
-0.842	1.566e-5	7.698e-5
-0.847	1.545e-5	7.729e-5
-0.852	1.524e-5	7.759e-5
-0.857	1.502e-5	7.789e-5
-0.862	1.480e-5	7.819e-5
-0.867	1.458e-5	7.848e-5
-0.872	1.434e-5	7.877e-5
-0.877	1.410e-5	7.905e-5
-0.882	1.386e-5	7.933e-5
-0.887	1.361e-5	7.960e-5
-0.892	1.334e-5	7.987e-5
-0.897	1.308e-5	8.013e-5
-0.902	1.280e-5	8.038e-5
-0.907	1.252e-5	8.063e-5
-0.912	1.224e-5	8.088e-5
-0.917	1.195e-5	8.112e-5
-0.922	1.164e-5	8.135e-5
-0.927	1.133e-5	8.158e-5
-0.932	1.100e-5	8.180e-5
-0.937	1.066e-5	8.201e-5
-0.942	1.031e-5	8.222e-5
-0.947	9.958e-6	8.242e-5
-0.952	9.595e-6	8.261e-5
-0.957	9.222e-6	8.279e-5
-0.962	8.838e-6	8.297e-5
-0.967	8.440e-6	8.314e-5
-0.972	8.029e-6	8.330e-5
-0.977	7.611e-6	8.345e-5
-0.982	7.190e-6	8.359e-5
-0.987	6.763e-6	8.373e-5
-0.992	6.327e-6	8.386e-5
-0.997	5.880e-6	8.397e-5
-1.002	5.426e-6	8.408e-5
-1.007	4.968e-6	8.418e-5
-1.012	4.516e-6	8.427e-5
-1.017	4.070e-6	8.435e-5
-1.022	3.626e-6	8.443e-5
-1.027	3.180e-6	8.449e-5
-1.032	2.731e-6	8.454e-5
-1.037	2.276e-6	8.459e-5
-1.042	1.829e-6	8.463e-5
-1.047	1.389e-6	8.465e-5
-1.052	9.591e-7	8.467e-5
-1.057	5.406e-7	8.468e-5
-1.062	1.299e-7	8.469e-5
-1.067	-2.818e-7	8.468e-5
-1.072	-6.900e-7	8.467e-5
-1.077	-1.100e-6	8.465e-5
-1.082	-1.514e-6	8.462e-5
-1.087	-1.926e-6	8.458e-5
-1.092	-2.337e-6	8.453e-5
-1.097	-2.752e-6	8.447e-5
-1.102	-3.164e-6	8.441e-5
-1.107	-3.578e-6	8.434e-5
-1.112	-4.000e-6	8.426e-5
-1.117	-4.432e-6	8.417e-5
-1.122	-4.881e-6	8.407e-5
-1.127	-5.345e-6	8.397e-5
-1.132	-5.826e-6	8.385e-5
-1.137	-6.333e-6	8.372e-5
-1.142	-6.879e-6	8.359e-5
-1.147	-7.474e-6	8.344e-5
-1.152	-8.117e-6	8.327e-5
-1.157	-8.811e-6	8.310e-5
-1.162	-9.557e-6	8.291e-5
-1.167	-1.035e-5	8.270e-5
-1.172	-1.123e-5	8.248e-5
-1.177	-1.218e-5	8.223e-5
-1.182	-1.322e-5	8.197e-5
-1.187	-1.436e-5	8.168e-5
-1.192	-1.561e-5	8.137e-5
-1.197	-1.696e-5	8.103e-5
-1.202	-1.847e-5	8.066e-5
-1.207	-2.011e-5	8.026e-5
-1.212	-2.190e-5	7.982e-5
-1.217	-2.384e-5	7.934e-5
-1.222	-2.594e-5	7.882e-5
-1.227	-2.823e-5	7.826e-5
-1.232	-3.071e-5	7.764e-5
-1.237	-3.341e-5	7.698e-5
-1.242	-3.628e-5	7.625e-5
-1.247	-3.938e-5	7.546e-5
-1.252	-4.268e-5	7.461e-5
-1.257	-4.623e-5	7.369e-5
-1.262	-5.002e-5	7.268e-5
-1.267	-5.407e-5	7.160e-5
-1.272	-5.837e-5	7.044e-5
-1.277	-6.292e-5	6.918e-5
-1.282	-6.771e-5	6.782e-5
-1.287	-7.274e-5	6.637e-5
-1.292	-7.803e-5	6.481e-5
-1.297	-8.357e-5	6.314e-5
-1.302	-8.937e-5	6.135e-5
-1.307	-9.542e-5	5.944e-5
-1.312	-1.017e-4	5.741e-5
-1.317	-1.080e-4	5.525e-5
-1.322	-1.146e-4	5.296e-5
-1.327	-1.212e-4	5.053e-5
-1.332	-1.280e-4	4.797e-5
-1.337	-1.350e-4	4.527e-5
-1.342	-1.420e-4	4.243e-5
-1.347	-1.491e-4	3.945e-5
-1.352	-1.562e-4	3.632e-5
-1.357	-1.631e-4	3.306e-5
-1.362	-1.696e-4	2.967e-5
-1.367	-1.757e-4	2.615e-5
-1.372	-1.814e-4	2.253e-5
-1.377	-1.868e-4	1.879e-5
-1.382	-1.920e-4	1.495e-5
-1.387	-1.971e-4	1.101e-5
-1.392	-2.020e-4	6.969e-6
-1.397	-2.066e-4	2.837e-6
-1.402	-2.110e-4	-1.383e-6
-1.407	-2.150e-4	-5.683e-6
-1.412	-2.187e-4	-1.006e-5
-1.417	-2.221e-4	-1.450e-5
-1.422	-2.250e-4	-1.900e-5
-1.427	-2.276e-4	-2.355e-5
-1.432	-2.297e-4	-2.815e-5
-1.437	-2.313e-4	-3.277e-5
-1.442	-2.325e-4	-3.742e-5
-1.447	-2.332e-4	-4.209e-5
-1.452	-2.333e-4	-4.675e-5
-1.457	-2.330e-4	-5.141e-5
-1.462	-2.322e-4	-5.606e-5
-1.467	-2.309e-4	-6.067e-5
-1.472	-2.292e-4	-6.526e-5
-1.477	-2.271e-4	-6.980e-5
-1.482	-2.247e-4	-7.430e-5
-1.487	-2.221e-4	-7.874e-5
-1.492	-2.193e-4	-8.312e-5
-1.497	-2.164e-4	-8.745e-5
-1.502	-2.135e-4	-9.172e-5
-1.507	-2.107e-4	-9.594e-5
-1.512	-2.079e-4	-1.001e-4
-1.517	-2.052e-4	-1.042e-4
-1.522	-2.026e-4	-1.083e-4
-1.527	-2.000e-4	-1.123e-4
-1.532	-1.975e-4	-1.162e-4
-1.537	-1.950e-4	-1.201e-4
-1.542	-1.926e-4	-1.240e-4
-1.547	-1.902e-4	-1.278e-4
-1.552	-1.879e-4	-1.315e-4
-1.557	-1.856e-4	-1.352e-4
-1.562	-1.835e-4	-1.389e-4
-1.567	-1.814e-4	-1.425e-4
-1.572	-1.793e-4	-1.461e-4
-1.577	-1.772e-4	-1.497e-4
-1.582	-1.752e-4	-1.532e-4
-1.587	-1.733e-4	-1.566e-4
-1.592	-1.715e-4	-1.601e-4
-1.597	-1.696e-4	-1.634e-4
-1.602	-1.679e-4	-1.668e-4
-1.607	-1.661e-4	-1.701e-4
-1.612	-1.645e-4	-1.734e-4
-1.617	-1.630e-4	-1.767e-4
-1.622	-1.615e-4	-1.799e-4
-1.627	-1.601e-4	-1.831e-4
-1.632	-1.587e-4	-1.863e-4
-1.637	-1.574e-4	-1.894e-4
-1.642	-1.562e-4	-1.926e-4
-1.647	-1.550e-4	-1.957e-4
-1.652	-1.539e-4	-1.987e-4
-1.657	-1.529e-4	-2.018e-4
-1.662	-1.520e-4	-2.048e-4
-1.667	-1.511e-4	-2.079e-4
-1.672	-1.503e-4	-2.109e-4
-1.677	-1.496e-4	-2.138e-4
-1.682	-1.488e-4	-2.168e-4
-1.687	-1.482e-4	-2.198e-4
-1.692	-1.476e-4	-2.227e-4
-1.697	-1.470e-4	-2.257e-4
-1.702	-1.465e-4	-2.286e-4
-1.707	-1.461e-4	-2.315e-4
-1.712	-1.456e-4	-2.344e-4
-1.717	-1.452e-4	-2.373e-4
-1.722	-1.449e-4	-2.402e-4
-1.727	-1.446e-4	-2.431e-4
-1.732	-1.443e-4	-2.460e-4
-1.737	-1.441e-4	-2.489e-4
-1.742	-1.438e-4	-2.518e-4
-1.747	-1.436e-4	-2.547e-4
-1.752	-1.435e-4	-2.575e-4
-1.757	-1.433e-4	-2.604e-4
-1.762	-1.432e-4	-2.633e-4
-1.767	-1.431e-4	-2.661e-4
-1.772	-1.430e-4	-2.690e-4
-1.777	-1.430e-4	-2.718e-4
-1.782	-1.430e-4	-2.747e-4
-1.787	-1.430e-4	-2.776e-4
-1.792	-1.431e-4	-2.804e-4
-1.797	-1.432e-4	-2.833e-4
-1.802	-1.433e-4	-2.861e-4
-1.807	-1.435e-4	-2.890e-4
-1.812	-1.438e-4	-2.919e-4
-1.817	-1.441e-4	-2.948e-4
-1.822	-1.444e-4	-2.977e-4
-1.827	-1.448e-4	-3.006e-4
-1.832	-1.452e-4	-3.035e-4
-1.837	-1.457e-4	-3.064e-4
-1.842	-1.462e-4	-3.093e-4
-1.847	-1.468e-4	-3.122e-4
-1.852	-1.475e-4	-3.152e-4
-1.857	-1.482e-4	-3.182e-4
-1.862	-1.490e-4	-3.211e-4
-1.867	-1.499e-4	-3.241e-4
-1.872	-1.508e-4	-3.271e-4
-1.877	-1.519e-4	-3.302e-4
-1.882	-1.530e-4	-3.332e-4
-1.887	-1.541e-4	-3.363e-4
-1.892	-1.554e-4	-3.394e-4
-1.897	-1.567e-4	-3.426e-4
-1.898	-1.501e-4	-3.003e-6
-1.893	-1.461e-4	-5.925e-6
-1.888	-1.425e-4	-8.774e-6
-1.883	-1.392e-4	-1.156e-5
-1.878	-1.364e-4	-1.429e-5
-1.873	-1.339e-4	-1.696e-5
-1.868	-1.316e-4	-1.960e-5
-1.863	-1.294e-4	-2.218e-5
-1.858	-1.274e-4	-2.473e-5
-1.853	-1.255e-4	-2.724e-5
-1.848	-1.237e-4	-2.972e-5
-1.843	-1.219e-4	-3.215e-5
-1.838	-1.203e-4	-3.456e-5
-1.833	-1.187e-4	-3.693e-5
-1.828	-1.172e-4	-3.928e-5
-1.823	-1.157e-4	-4.159e-5
-1.818	-1.143e-4	-4.388e-5
-1.813	-1.129e-4	-4.613e-5
-1.808	-1.115e-4	-4.836e-5
-1.803	-1.102e-4	-5.057e-5
-1.798	-1.090e-4	-5.275e-5
-1.793	-1.078e-4	-5.490e-5
-1.788	-1.066e-4	-5.704e-5
-1.783	-1.054e-4	-5.914e-5
-1.778	-1.043e-4	-6.123e-5
-1.773	-1.032e-4	-6.330e-5
-1.768	-1.021e-4	-6.534e-5
-1.763	-1.011e-4	-6.736e-5
-1.758	-1.001e-4	-6.936e-5
-1.753	-9.907e-5	-7.134e-5
-1.748	-9.809e-5	-7.330e-5
-1.743	-9.711e-5	-7.525e-5
-1.738	-9.616e-5	-7.717e-5
-1.733	-9.522e-5	-7.907e-5
-1.728	-9.429e-5	-8.096e-5
-1.723	-9.339e-5	-8.283e-5
-1.718	-9.250e-5	-8.468e-5
-1.713	-9.161e-5	-8.651e-5
-1.708	-9.075e-5	-8.832e-5
-1.703	-8.990e-5	-9.012e-5
-1.698	-8.905e-5	-9.190e-5
-1.693	-8.822e-5	-9.367e-5
-1.688	-8.739e-5	-9.542e-5
-1.683	-8.656e-5	-9.715e-5
-1.678	-8.575e-5	-9.886e-5
-1.673	-8.495e-5	-1.006e-4
-1.668	-8.416e-5	-1.022e-4
-1.663	-8.338e-5	-1.039e-4
-1.658	-8.260e-5	-1.056e-4
-1.653	-8.181e-5	-1.072e-4
-1.648	-8.103e-5	-1.088e-4
-1.643	-8.026e-5	-1.104e-4
-1.638	-7.950e-5	-1.120e-4
-1.633	-7.874e-5	-1.136e-4
-1.628	-7.798e-5	-1.151e-4
-1.623	-7.722e-5	-1.167e-4
-1.618	-7.646e-5	-1.182e-4
-1.613	-7.572e-5	-1.197e-4
-1.608	-7.497e-5	-1.212e-4
-1.603	-7.425e-5	-1.227e-4
-1.598	-7.353e-5	-1.242e-4
-1.593	-7.280e-5	-1.256e-4
-1.588	-7.208e-5	-1.271e-4
-1.583	-7.135e-5	-1.285e-4
-1.578	-7.062e-5	-1.299e-4
-1.573	-6.990e-5	-1.313e-4
-1.568	-6.919e-5	-1.327e-4
-1.563	-6.846e-5	-1.341e-4
-1.558	-6.774e-5	-1.354e-4
-1.553	-6.702e-5	-1.368e-4
-1.548	-6.629e-5	-1.381e-4
-1.543	-6.557e-5	-1.394e-4
-1.538	-6.484e-5	-1.407e-4
-1.533	-6.409e-5	-1.420e-4
-1.528	-6.334e-5	-1.433e-4
-1.523	-6.257e-5	-1.445e-4
-1.518	-6.179e-5	-1.457e-4
-1.513	-6.102e-5	-1.470e-4
-1.508	-6.023e-5	-1.482e-4
-1.503	-5.942e-5	-1.494e-4
-1.498	-5.860e-5	-1.505e-4
-1.493	-5.775e-5	-1.517e-4
-1.488	-5.686e-5	-1.528e-4
-1.483	-5.596e-5	-1.539e-4
-1.478	-5.503e-5	-1.550e-4
-1.473	-5.406e-5	-1.561e-4
-1.468	-5.307e-5	-1.572e-4
-1.463	-5.203e-5	-1.582e-4
-1.458	-5.094e-5	-1.592e-4
-1.453	-4.983e-5	-1.602e-4
-1.448	-4.870e-5	-1.612e-4
-1.443	-4.753e-5	-1.622e-4
-1.438	-4.636e-5	-1.631e-4
-1.433	-4.516e-5	-1.640e-4
-1.428	-4.391e-5	-1.649e-4
-1.423	-4.260e-5	-1.657e-4
-1.418	-4.125e-5	-1.666e-4
-1.413	-3.986e-5	-1.673e-4
-1.408	-3.843e-5	-1.681e-4
-1.403	-3.701e-5	-1.689e-4
-1.398	-3.555e-5	-1.696e-4
-1.393	-3.409e-5	-1.703e-4
-1.388	-3.261e-5	-1.709e-4
-1.383	-3.110e-5	-1.715e-4
-1.378	-2.957e-5	-1.721e-4
-1.373	-2.804e-5	-1.727e-4
-1.368	-2.651e-5	-1.732e-4
-1.363	-2.499e-5	-1.737e-4
-1.358	-2.350e-5	-1.742e-4
-1.353	-2.202e-5	-1.746e-4
-1.348	-2.056e-5	-1.750e-4
-1.343	-1.913e-5	-1.754e-4
-1.338	-1.770e-5	-1.758e-4
-1.333	-1.629e-5	-1.761e-4
-1.328	-1.491e-5	-1.764e-4
-1.323	-1.356e-5	-1.767e-4
-1.318	-1.227e-5	-1.769e-4
-1.313	-1.102e-5	-1.771e-4
-1.308	-9.800e-6	-1.773e-4
-1.303	-8.615e-6	-1.775e-4
-1.298	-7.471e-6	-1.776e-4
-1.293	-6.356e-6	-1.778e-4
-1.288	-5.294e-6	-1.779e-4
-1.283	-4.274e-6	-1.780e-4
-1.278	-3.273e-6	-1.780e-4
-1.273	-2.303e-6	-1.781e-4
-1.268	-1.370e-6	-1.781e-4
-1.263	-4.549e-7	-1.781e-4
-1.258	4.207e-7	-1.781e-4
-1.253	1.267e-6	-1.781e-4
-1.248	2.103e-6	-1.780e-4
-1.243	2.917e-6	-1.780e-4
-1.238	3.709e-6	-1.779e-4
-1.233	4.501e-6	-1.778e-4
-1.228	5.285e-6	-1.777e-4
-1.223	6.077e-6	-1.776e-4
-1.218	6.897e-6	-1.774e-4
-1.213	7.744e-6	-1.773e-4
-1.208	8.607e-6	-1.771e-4
-1.203	9.481e-6	-1.769e-4
-1.198	1.037e-5	-1.767e-4
-1.193	1.129e-5	-1.765e-4
-1.188	1.227e-5	-1.763e-4
-1.183	1.334e-5	-1.760e-4
-1.178	1.448e-5	-1.757e-4
-1.173	1.570e-5	-1.754e-4
-1.168	1.700e-5	-1.750e-4
-1.163	1.838e-5	-1.747e-4
-1.158	1.985e-5	-1.743e-4
-1.153	2.144e-5	-1.738e-4
-1.148	2.315e-5	-1.734e-4
-1.143	2.502e-5	-1.729e-4
-1.138	2.706e-5	-1.723e-4
-1.133	2.924e-5	-1.718e-4
-1.128	3.157e-5	-1.711e-4
-1.123	3.405e-5	-1.704e-4
-1.118	3.671e-5	-1.697e-4
-1.113	3.958e-5	-1.689e-4
-1.108	4.267e-5	-1.681e-4
-1.103	4.595e-5	-1.671e-4
-1.098	4.944e-5	-1.662e-4
-1.093	5.314e-5	-1.651e-4
-1.088	5.701e-5	-1.640e-4
-1.083	6.109e-5	-1.627e-4
-1.078	6.540e-5	-1.614e-4
-1.073	6.991e-5	-1.600e-4
-1.068	7.463e-5	-1.585e-4
-1.063	7.953e-5	-1.569e-4
-1.058	8.453e-5	-1.553e-4
-1.053	8.965e-5	-1.535e-4
-1.048	9.491e-5	-1.516e-4
-1.043	1.002e-4	-1.496e-4
-1.038	1.057e-4	-1.474e-4
-1.033	1.113e-4	-1.452e-4
-1.028	1.168e-4	-1.429e-4
-1.023	1.222e-4	-1.404e-4
-1.018	1.276e-4	-1.379e-4
-1.013	1.329e-4	-1.352e-4
-1.008	1.380e-4	-1.325e-4
-1.003	1.431e-4	-1.296e-4
-0.998	1.480e-4	-1.266e-4
-0.993	1.526e-4	-1.236e-4
-0.988	1.569e-4	-1.205e-4
-0.983	1.609e-4	-1.172e-4
-0.978	1.645e-4	-1.139e-4
-0.973	1.677e-4	-1.106e-4
-0.968	1.706e-4	-1.072e-4
-0.963	1.731e-4	-1.037e-4
-0.958	1.752e-4	-1.002e-4
-0.953	1.769e-4	-9.668e-5
-0.948	1.781e-4	-9.312e-5
-0.943	1.790e-4	-8.954e-5
-0.938	1.794e-4	-8.595e-5
-0.933	1.795e-4	-8.236e-5
-0.928	1.791e-4	-7.878e-5
-0.923	1.784e-4	-7.521e-5
-0.918	1.774e-4	-7.166e-5
-0.913	1.761e-4	-6.814e-5
-0.908	1.746e-4	-6.464e-5
-0.903	1.729e-4	-6.119e-5
-0.898	1.709e-4	-5.777e-5
-0.893	1.689e-4	-5.439e-5
-0.888	1.667e-4	-5.106e-5
-0.883	1.644e-4	-4.777e-5
-0.878	1.620e-4	-4.453e-5
-0.873	1.596e-4	-4.134e-5
-0.868	1.572e-4	-3.819e-5
-0.863	1.548e-4	-3.510e-5
-0.858	1.523e-4	-3.205e-5
-0.853	1.499e-4	-2.905e-5
-0.848	1.475e-4	-2.610e-5
-0.843	1.451e-4	-2.320e-5
-0.838	1.428e-4	-2.035e-5
-0.833	1.405e-4	-1.754e-5
-0.828	1.383e-4	-1.477e-5
-0.823	1.362e-4	-1.205e-5
-0.818	1.341e-4	-9.365e-6
-0.813	1.320e-4	-6.725e-6
-0.808	1.300e-4	-4.125e-6
-0.803	1.280e-4	-1.565e-6
-0.798	1.261e-4	9.581e-7
-0.793	1.243e-4	3.444e-6
-0.788	1.225e-4	5.893e-6
-0.783	1.207e-4	8.308e-6
-0.778	1.190e-4	1.069e-5
-0.773	1.173e-4	1.303e-5
-0.768	1.157e-4	1.535e-5
-0.763	1.141e-4	1.763e-5
-0.758	1.126e-4	1.988e-5
-0.753	1.111e-4	2.210e-5
-0.748	1.096e-4	2.430e-5
-0.743	1.081e-4	2.646e-5
-0.738	1.067e-4	2.859e-5
-0.733	1.053e-4	3.070e-5
-0.728	1.040e-4	3.278e-5
-0.723	1.026e-4	3.483e-5
-0.718	1.014e-4	3.686e-5
-0.713	1.001e-4	3.886e-5
-0.708	9.888e-5	4.084e-5
-0.703	9.769e-5	4.279e-5
-0.698	9.652e-5	4.472e-5
-0.693	9.537e-5	4.663e-5
-0.688	9.426e-5	4.851e-5
-0.683	9.318e-5	5.038e-5
-0.678	9.214e-5	5.222e-5
-0.673	9.113e-5	5.404e-5
-0.668	9.014e-5	5.585e-5
-0.663	8.917e-5	5.763e-5
-0.658	8.823e-5	5.939e-5
-0.653	8.731e-5	6.114e-5
-0.648	8.641e-5	6.287e-5
-0.643	8.554e-5	6.458e-5
-0.638	8.469e-5	6.627e-5
-0.633	8.385e-5	6.795e-5
-0.628	8.304e-5	6.961e-5
-0.623	8.224e-5	7.126e-5
-0.618	8.145e-5	7.288e-5
-0.613	8.069e-5	7.450e-5
-0.608	7.994e-5	7.610e-5
-0.603	7.922e-5	7.768e-5
-0.598	7.852e-5	7.925e-5
-0.593	7.783e-5	8.081e-5
-0.588	7.715e-5	8.235e-5
-0.583	7.647e-5	8.388e-5
-0.578	7.580e-5	8.540e-5
-0.573	7.515e-5	8.690e-5
-0.568	7.453e-5	8.839e-5
-0.563	7.391e-5	8.987e-5
-0.558	7.331e-5	9.133e-5
-0.553	7.271e-5	9.279e-5
-0.548	7.211e-5	9.423e-5
-0.543	7.152e-5	9.566e-5
-0.538	7.093e-5	9.708e-5
-0.533	7.036e-5	9.849e-5
-0.528	6.980e-5	9.988e-5
-0.523	6.926e-5	1.013e-4
-0.518	6.873e-5	1.026e-4
-0.513	6.822e-5	1.040e-4
-0.508	6.772e-5	1.054e-4
-0.503	6.723e-5	1.067e-4
-0.498	6.674e-5	1.080e-4
-0.493	6.627e-5	1.094e-4
-0.488	6.581e-5	1.107e-4
-0.483	6.536e-5	1.120e-4
-0.478	6.495e-5	1.133e-4
-0.473	6.453e-5	1.146e-4
-0.468	6.410e-5	1.159e-4
-0.463	6.367e-5	1.171e-4
-0.458	6.323e-5	1.184e-4
-0.453	6.279e-5	1.197e-4
-0.448	6.239e-5	1.209e-4
-0.443	6.202e-5	1.221e-4
-0.438	6.165e-5	1.234e-4
-0.433	6.130e-5	1.246e-4
-0.428	6.093e-5	1.258e-4
-0.423	6.056e-5	1.270e-4
-0.418	6.022e-5	1.282e-4
-0.413	5.988e-5	1.294e-4
-0.408	5.954e-5	1.306e-4
-0.403	5.922e-5	1.318e-4
-0.398	5.891e-5	1.330e-4
-0.393	5.860e-5	1.342e-4
-0.388	5.829e-5	1.353e-4
-0.383	5.799e-5	1.365e-4
-0.378	5.768e-5	1.376e-4
-0.373	5.739e-5	1.388e-4
-0.368	5.710e-5	1.399e-4
-0.363	5.683e-5	1.411e-4
-0.358	5.657e-5	1.422e-4
-0.353	5.631e-5	1.433e-4
-0.348	5.604e-5	1.444e-4
-0.343	5.578e-5	1.456e-4
-0.338	5.551e-5	1.467e-4
-0.333	5.526e-5	1.478e-4
-0.328	5.503e-5	1.489e-4
-0.323	5.480e-5	1.500e-4
-0.318	5.458e-5	1.511e-4
-0.313	5.435e-5	1.521e-4
-0.308	5.412e-5	1.532e-4
-0.303	5.389e-5	1.543e-4
-0.298	5.368e-5	1.554e-4
-0.293	5.347e-5	1.565e-4
-0.288	5.327e-5	1.575e-4
-0.283	5.308e-5	1.586e-4
-0.278	5.289e-5	1.596e-4
-0.273	5.270e-5	1.607e-4
-0.268	5.252e-5	1.617e-4
-0.263	5.234e-5	1.628e-4
-0.258	5.217e-5	1.638e-4
-0.253	5.200e-5	1.649e-4
-0.248	5.185e-5	1.659e-4
-0.243	5.169e-5	1.669e-4
-0.238	5.153e-5	1.680e-4
-0.233	5.137e-5	1.690e-4
-0.228	5.122e-5	1.700e-4
-0.223	5.108e-5	1.710e-4
-0.218	5.095e-5	1.721e-4
-0.213	5.082e-5	1.731e-4
-0.208	5.070e-5	1.741e-4
-0.203	5.059e-5	1.751e-4
