Oct. 17, 2019   15:11:54
Cyclic Voltammetry
File: cv_cpz_scan_rates_re2_005
Data Source:  Experiment
Instrument Model:  CHI760E
Data Proc:  Smoothing
Header: 
Note: 

Init E (V) = -0.2
High E (V) = -0.2
Low E (V) = -1.9
Init P/N = N
Scan Rate (V/s) = 0.25
Segment = 6
Sample Interval (V) = 0.005
Quiet Time (sec) = 2
Sensitivity (A/V) = 1e-4

Segment 1:
Ep = -1.352V
ip = -1.933e-4A
Ah = -9.993e-5C

Segment 2:
Ep = -0.858V
ip = 1.362e-4A
Ah = 8.975e-5C

Segment 3:
Ep = -1.347V
ip = -1.852e-4A
Ah = -9.971e-5C

Segment 4:
Ep = -0.858V
ip = 1.449e-4A
Ah = 9.855e-5C

Segment 5:
Ep = -1.352V
ip = -1.656e-4A
Ah = -8.928e-5C

Segment 6:
Ep = -0.853V
ip = 1.075e-4A
Ah = 4.675e-5C

Potential/V	Current/A

-0.202	1.900e-5	3.799e-7
-0.207	1.865e-5	7.529e-7
-0.212	1.832e-5	1.119e-6
-0.217	1.802e-5	1.480e-6
-0.222	1.773e-5	1.834e-6
-0.227	1.745e-5	2.183e-6
-0.232	1.719e-5	2.527e-6
-0.237	1.694e-5	2.866e-6
-0.242	1.668e-5	3.200e-6
-0.247	1.642e-5	3.528e-6
-0.252	1.617e-5	3.851e-6
-0.257	1.592e-5	4.170e-6
-0.262	1.568e-5	4.483e-6
-0.267	1.545e-5	4.793e-6
-0.272	1.523e-5	5.097e-6
-0.277	1.501e-5	5.398e-6
-0.282	1.480e-5	5.694e-6
-0.287	1.459e-5	5.985e-6
-0.292	1.439e-5	6.273e-6
-0.297	1.418e-5	6.557e-6
-0.302	1.399e-5	6.837e-6
-0.307	1.381e-5	7.113e-6
-0.312	1.363e-5	7.385e-6
-0.317	1.344e-5	7.654e-6
-0.322	1.325e-5	7.919e-6
-0.327	1.307e-5	8.181e-6
-0.332	1.288e-5	8.438e-6
-0.337	1.271e-5	8.692e-6
-0.342	1.254e-5	8.943e-6
-0.347	1.237e-5	9.191e-6
-0.352	1.219e-5	9.434e-6
-0.357	1.202e-5	9.675e-6
-0.362	1.185e-5	9.912e-6
-0.367	1.169e-5	1.015e-5
-0.372	1.153e-5	1.038e-5
-0.377	1.137e-5	1.060e-5
-0.382	1.121e-5	1.083e-5
-0.387	1.105e-5	1.105e-5
-0.392	1.090e-5	1.127e-5
-0.397	1.074e-5	1.148e-5
-0.402	1.059e-5	1.169e-5
-0.407	1.043e-5	1.190e-5
-0.412	1.027e-5	1.211e-5
-0.417	1.012e-5	1.231e-5
-0.422	9.980e-6	1.251e-5
-0.427	9.844e-6	1.271e-5
-0.432	9.718e-6	1.290e-5
-0.437	9.596e-6	1.309e-5
-0.442	9.467e-6	1.328e-5
-0.447	9.338e-6	1.347e-5
-0.452	9.212e-6	1.365e-5
-0.457	9.091e-6	1.383e-5
-0.462	8.978e-6	1.401e-5
-0.467	8.871e-6	1.419e-5
-0.472	8.763e-6	1.437e-5
-0.477	8.660e-6	1.454e-5
-0.482	8.561e-6	1.471e-5
-0.487	8.467e-6	1.488e-5
-0.492	8.377e-6	1.505e-5
-0.497	8.289e-6	1.521e-5
-0.502	8.204e-6	1.538e-5
-0.507	8.122e-6	1.554e-5
-0.512	8.036e-6	1.570e-5
-0.517	7.953e-6	1.586e-5
-0.522	7.875e-6	1.602e-5
-0.527	7.799e-6	1.617e-5
-0.532	7.728e-6	1.633e-5
-0.537	7.663e-6	1.648e-5
-0.542	7.594e-6	1.663e-5
-0.547	7.527e-6	1.678e-5
-0.552	7.464e-6	1.693e-5
-0.557	7.399e-6	1.708e-5
-0.562	7.337e-6	1.723e-5
-0.567	7.280e-6	1.737e-5
-0.572	7.222e-6	1.752e-5
-0.577	7.172e-6	1.766e-5
-0.582	7.129e-6	1.780e-5
-0.587	7.084e-6	1.795e-5
-0.592	7.045e-6	1.809e-5
-0.597	7.010e-6	1.823e-5
-0.602	6.976e-6	1.837e-5
-0.607	6.950e-6	1.851e-5
-0.612	6.930e-6	1.864e-5
-0.617	6.911e-6	1.878e-5
-0.622	6.896e-6	1.892e-5
-0.627	6.885e-6	1.906e-5
-0.632	6.873e-6	1.920e-5
-0.637	6.868e-6	1.933e-5
-0.642	6.868e-6	1.947e-5
-0.647	6.870e-6	1.961e-5
-0.652	6.876e-6	1.975e-5
-0.657	6.889e-6	1.988e-5
-0.662	6.902e-6	2.002e-5
-0.667	6.916e-6	2.016e-5
-0.672	6.929e-6	2.030e-5
-0.677	6.936e-6	2.044e-5
-0.682	6.937e-6	2.058e-5
-0.687	6.942e-6	2.071e-5
-0.692	6.948e-6	2.085e-5
-0.697	6.953e-6	2.099e-5
-0.702	6.962e-6	2.113e-5
-0.707	6.964e-6	2.127e-5
-0.712	6.965e-6	2.141e-5
-0.717	6.968e-6	2.155e-5
-0.722	6.972e-6	2.169e-5
-0.727	6.976e-6	2.183e-5
-0.732	6.983e-6	2.197e-5
-0.737	6.988e-6	2.211e-5
-0.742	6.997e-6	2.225e-5
-0.747	7.008e-6	2.239e-5
-0.752	7.017e-6	2.253e-5
-0.757	7.021e-6	2.267e-5
-0.762	7.021e-6	2.281e-5
-0.767	7.017e-6	2.295e-5
-0.772	7.015e-6	2.309e-5
-0.777	7.013e-6	2.323e-5
-0.782	7.007e-6	2.337e-5
-0.787	6.999e-6	2.351e-5
-0.792	6.986e-6	2.365e-5
-0.797	6.977e-6	2.379e-5
-0.802	6.972e-6	2.393e-5
-0.807	6.969e-6	2.407e-5
-0.812	6.961e-6	2.421e-5
-0.817	6.944e-6	2.435e-5
-0.822	6.910e-6	2.448e-5
-0.827	6.870e-6	2.462e-5
-0.832	6.826e-6	2.476e-5
-0.837	6.780e-6	2.489e-5
-0.842	6.734e-6	2.503e-5
-0.847	6.686e-6	2.516e-5
-0.852	6.626e-6	2.529e-5
-0.857	6.557e-6	2.543e-5
-0.862	6.480e-6	2.556e-5
-0.867	6.389e-6	2.568e-5
-0.872	6.290e-6	2.581e-5
-0.877	6.192e-6	2.593e-5
-0.882	6.092e-6	2.605e-5
-0.887	5.983e-6	2.617e-5
-0.892	5.869e-6	2.629e-5
-0.897	5.737e-6	2.641e-5
-0.902	5.587e-6	2.652e-5
-0.907	5.431e-6	2.663e-5
-0.912	5.268e-6	2.673e-5
-0.917	5.099e-6	2.683e-5
-0.922	4.933e-6	2.693e-5
-0.927	4.768e-6	2.703e-5
-0.932	4.599e-6	2.712e-5
-0.937	4.426e-6	2.721e-5
-0.942	4.242e-6	2.729e-5
-0.947	4.047e-6	2.737e-5
-0.952	3.841e-6	2.745e-5
-0.957	3.636e-6	2.752e-5
-0.962	3.428e-6	2.759e-5
-0.967	3.228e-6	2.766e-5
-0.972	3.037e-6	2.772e-5
-0.977	2.845e-6	2.777e-5
-0.982	2.652e-6	2.783e-5
-0.987	2.458e-6	2.788e-5
-0.992	2.252e-6	2.792e-5
-0.997	2.049e-6	2.796e-5
-1.002	1.854e-6	2.800e-5
-1.007	1.652e-6	2.803e-5
-1.012	1.455e-6	2.806e-5
-1.017	1.255e-6	2.809e-5
-1.022	1.034e-6	2.811e-5
-1.027	8.124e-7	2.812e-5
-1.032	5.878e-7	2.814e-5
-1.037	3.450e-7	2.814e-5
-1.042	1.037e-7	2.814e-5
-1.047	-1.457e-7	2.814e-5
-1.052	-4.233e-7	2.813e-5
-1.057	-7.133e-7	2.812e-5
-1.062	-1.030e-6	2.810e-5
-1.067	-1.390e-6	2.807e-5
-1.072	-1.772e-6	2.804e-5
-1.077	-2.176e-6	2.799e-5
-1.082	-2.622e-6	2.794e-5
-1.087	-3.102e-6	2.788e-5
-1.092	-3.639e-6	2.780e-5
-1.097	-4.254e-6	2.772e-5
-1.102	-4.944e-6	2.762e-5
-1.107	-5.704e-6	2.751e-5
-1.112	-6.551e-6	2.738e-5
-1.117	-7.495e-6	2.723e-5
-1.122	-8.539e-6	2.705e-5
-1.127	-9.706e-6	2.686e-5
-1.132	-1.100e-5	2.664e-5
-1.137	-1.242e-5	2.639e-5
-1.142	-1.400e-5	2.611e-5
-1.147	-1.575e-5	2.580e-5
-1.152	-1.767e-5	2.544e-5
-1.157	-1.980e-5	2.505e-5
-1.162	-2.214e-5	2.461e-5
-1.167	-2.470e-5	2.411e-5
-1.172	-2.751e-5	2.356e-5
-1.177	-3.055e-5	2.295e-5
-1.182	-3.384e-5	2.227e-5
-1.187	-3.740e-5	2.153e-5
-1.192	-4.121e-5	2.070e-5
-1.197	-4.529e-5	1.980e-5
-1.202	-4.969e-5	1.880e-5
-1.207	-5.433e-5	1.771e-5
-1.212	-5.924e-5	1.653e-5
-1.217	-6.444e-5	1.524e-5
-1.222	-6.987e-5	1.384e-5
-1.227	-7.558e-5	1.233e-5
-1.232	-8.154e-5	1.070e-5
-1.237	-8.766e-5	8.948e-6
-1.242	-9.397e-5	7.069e-6
-1.247	-1.004e-4	5.060e-6
-1.252	-1.070e-4	2.919e-6
-1.257	-1.137e-4	6.452e-7
-1.262	-1.203e-4	-1.761e-6
-1.267	-1.266e-4	-4.292e-6
-1.272	-1.325e-4	-6.943e-6
-1.277	-1.381e-4	-9.704e-6
-1.282	-1.433e-4	-1.257e-5
-1.287	-1.483e-4	-1.554e-5
-1.292	-1.532e-4	-1.860e-5
-1.297	-1.578e-4	-2.176e-5
-1.302	-1.623e-4	-2.500e-5
-1.307	-1.664e-4	-2.833e-5
-1.312	-1.703e-4	-3.174e-5
-1.317	-1.739e-4	-3.521e-5
-1.322	-1.770e-4	-3.876e-5
-1.327	-1.798e-4	-4.235e-5
-1.332	-1.821e-4	-4.599e-5
-1.337	-1.839e-4	-4.967e-5
-1.342	-1.853e-4	-5.338e-5
-1.347	-1.862e-4	-5.710e-5
-1.352	-1.865e-4	-6.083e-5
-1.357	-1.862e-4	-6.455e-5
-1.362	-1.855e-4	-6.826e-5
-1.367	-1.843e-4	-7.195e-5
-1.372	-1.827e-4	-7.560e-5
-1.377	-1.808e-4	-7.922e-5
-1.382	-1.786e-4	-8.279e-5
-1.387	-1.762e-4	-8.632e-5
-1.392	-1.737e-4	-8.979e-5
-1.397	-1.712e-4	-9.321e-5
-1.402	-1.687e-4	-9.659e-5
-1.407	-1.662e-4	-9.991e-5
-1.412	-1.639e-4	-1.032e-4
-1.417	-1.616e-4	-1.064e-4
-1.422	-1.593e-4	-1.096e-4
-1.427	-1.571e-4	-1.128e-4
-1.432	-1.550e-4	-1.159e-4
-1.437	-1.529e-4	-1.189e-4
-1.442	-1.509e-4	-1.219e-4
-1.447	-1.490e-4	-1.249e-4
-1.452	-1.472e-4	-1.279e-4
-1.457	-1.454e-4	-1.308e-4
-1.462	-1.437e-4	-1.336e-4
-1.467	-1.421e-4	-1.365e-4
-1.472	-1.405e-4	-1.393e-4
-1.477	-1.390e-4	-1.421e-4
-1.482	-1.376e-4	-1.448e-4
-1.487	-1.362e-4	-1.475e-4
-1.492	-1.349e-4	-1.502e-4
-1.497	-1.336e-4	-1.529e-4
-1.502	-1.324e-4	-1.556e-4
-1.507	-1.312e-4	-1.582e-4
-1.512	-1.301e-4	-1.608e-4
-1.517	-1.290e-4	-1.634e-4
-1.522	-1.279e-4	-1.659e-4
-1.527	-1.269e-4	-1.685e-4
-1.532	-1.259e-4	-1.710e-4
-1.537	-1.250e-4	-1.735e-4
-1.542	-1.241e-4	-1.760e-4
-1.547	-1.232e-4	-1.784e-4
-1.552	-1.223e-4	-1.809e-4
-1.557	-1.214e-4	-1.833e-4
-1.562	-1.206e-4	-1.857e-4
-1.567	-1.198e-4	-1.881e-4
-1.572	-1.190e-4	-1.905e-4
-1.577	-1.183e-4	-1.929e-4
-1.582	-1.176e-4	-1.952e-4
-1.587	-1.169e-4	-1.975e-4
-1.592	-1.162e-4	-1.999e-4
-1.597	-1.155e-4	-2.022e-4
-1.602	-1.149e-4	-2.045e-4
-1.607	-1.143e-4	-2.068e-4
-1.612	-1.137e-4	-2.090e-4
-1.617	-1.131e-4	-2.113e-4
-1.622	-1.125e-4	-2.135e-4
-1.627	-1.120e-4	-2.158e-4
-1.632	-1.114e-4	-2.180e-4
-1.637	-1.109e-4	-2.202e-4
-1.642	-1.104e-4	-2.224e-4
-1.647	-1.100e-4	-2.246e-4
-1.652	-1.095e-4	-2.268e-4
-1.657	-1.091e-4	-2.290e-4
-1.662	-1.087e-4	-2.312e-4
-1.667	-1.083e-4	-2.333e-4
-1.672	-1.079e-4	-2.355e-4
-1.677	-1.075e-4	-2.377e-4
-1.682	-1.071e-4	-2.398e-4
-1.687	-1.068e-4	-2.419e-4
-1.692	-1.064e-4	-2.441e-4
-1.697	-1.061e-4	-2.462e-4
-1.702	-1.058e-4	-2.483e-4
-1.707	-1.055e-4	-2.504e-4
-1.712	-1.052e-4	-2.525e-4
-1.717	-1.049e-4	-2.546e-4
-1.722	-1.047e-4	-2.567e-4
-1.727	-1.044e-4	-2.588e-4
-1.732	-1.042e-4	-2.609e-4
-1.737	-1.040e-4	-2.630e-4
-1.742	-1.039e-4	-2.650e-4
-1.747	-1.037e-4	-2.671e-4
-1.752	-1.035e-4	-2.692e-4
-1.757	-1.033e-4	-2.712e-4
-1.762	-1.032e-4	-2.733e-4
-1.767	-1.031e-4	-2.754e-4
-1.772	-1.030e-4	-2.774e-4
-1.777	-1.029e-4	-2.795e-4
-1.782	-1.028e-4	-2.815e-4
-1.787	-1.028e-4	-2.836e-4
-1.792	-1.027e-4	-2.857e-4
-1.797	-1.027e-4	-2.877e-4
-1.802	-1.027e-4	-2.898e-4
-1.807	-1.028e-4	-2.918e-4
-1.812	-1.028e-4	-2.939e-4
-1.817	-1.029e-4	-2.959e-4
-1.822	-1.030e-4	-2.980e-4
-1.827	-1.031e-4	-3.001e-4
-1.832	-1.033e-4	-3.021e-4
-1.837	-1.035e-4	-3.042e-4
-1.842	-1.037e-4	-3.063e-4
-1.847	-1.039e-4	-3.083e-4
-1.852	-1.042e-4	-3.104e-4
-1.857	-1.046e-4	-3.125e-4
-1.862	-1.049e-4	-3.146e-4
-1.867	-1.053e-4	-3.167e-4
-1.872	-1.057e-4	-3.188e-4
-1.877	-1.062e-4	-3.210e-4
-1.882	-1.067e-4	-3.231e-4
-1.887	-1.073e-4	-3.252e-4
-1.892	-1.079e-4	-3.274e-4
-1.897	-1.085e-4	-3.296e-4
-1.898	-1.023e-4	-2.046e-6
-1.893	-9.821e-5	-4.010e-6
-1.888	-9.458e-5	-5.902e-6
-1.883	-9.140e-5	-7.730e-6
-1.878	-8.875e-5	-9.505e-6
-1.873	-8.647e-5	-1.123e-5
-1.868	-8.444e-5	-1.292e-5
-1.863	-8.255e-5	-1.457e-5
-1.858	-8.079e-5	-1.619e-5
-1.853	-7.915e-5	-1.777e-5
-1.848	-7.764e-5	-1.933e-5
-1.843	-7.622e-5	-2.085e-5
-1.838	-7.491e-5	-2.235e-5
-1.833	-7.367e-5	-2.382e-5
-1.828	-7.247e-5	-2.527e-5
-1.823	-7.134e-5	-2.670e-5
-1.818	-7.025e-5	-2.810e-5
-1.813	-6.920e-5	-2.949e-5
-1.808	-6.821e-5	-3.085e-5
-1.803	-6.727e-5	-3.220e-5
-1.798	-6.636e-5	-3.352e-5
-1.793	-6.550e-5	-3.483e-5
-1.788	-6.465e-5	-3.613e-5
-1.783	-6.381e-5	-3.740e-5
-1.778	-6.300e-5	-3.866e-5
-1.773	-6.221e-5	-3.991e-5
-1.768	-6.145e-5	-4.114e-5
-1.763	-6.075e-5	-4.235e-5
-1.758	-6.004e-5	-4.355e-5
-1.753	-5.935e-5	-4.474e-5
-1.748	-5.868e-5	-4.591e-5
-1.743	-5.801e-5	-4.707e-5
-1.738	-5.734e-5	-4.822e-5
-1.733	-5.672e-5	-4.935e-5
-1.728	-5.611e-5	-5.048e-5
-1.723	-5.551e-5	-5.159e-5
-1.718	-5.495e-5	-5.268e-5
-1.713	-5.437e-5	-5.377e-5
-1.708	-5.380e-5	-5.485e-5
-1.703	-5.324e-5	-5.591e-5
-1.698	-5.267e-5	-5.697e-5
-1.693	-5.210e-5	-5.801e-5
-1.688	-5.158e-5	-5.904e-5
-1.683	-5.107e-5	-6.006e-5
-1.678	-5.057e-5	-6.107e-5
-1.673	-5.010e-5	-6.207e-5
-1.668	-4.960e-5	-6.307e-5
-1.663	-4.907e-5	-6.405e-5
-1.658	-4.855e-5	-6.502e-5
-1.653	-4.802e-5	-6.598e-5
-1.648	-4.752e-5	-6.693e-5
-1.643	-4.705e-5	-6.787e-5
-1.638	-4.659e-5	-6.880e-5
-1.633	-4.613e-5	-6.973e-5
-1.628	-4.569e-5	-7.064e-5
-1.623	-4.525e-5	-7.154e-5
-1.618	-4.481e-5	-7.244e-5
-1.613	-4.440e-5	-7.333e-5
-1.608	-4.400e-5	-7.421e-5
-1.603	-4.361e-5	-7.508e-5
-1.598	-4.323e-5	-7.595e-5
-1.593	-4.286e-5	-7.680e-5
-1.588	-4.249e-5	-7.765e-5
-1.583	-4.215e-5	-7.850e-5
-1.578	-4.181e-5	-7.933e-5
-1.573	-4.150e-5	-8.016e-5
-1.568	-4.121e-5	-8.099e-5
-1.563	-4.094e-5	-8.180e-5
-1.558	-4.067e-5	-8.262e-5
-1.553	-4.042e-5	-8.343e-5
-1.548	-4.018e-5	-8.423e-5
-1.543	-3.994e-5	-8.503e-5
-1.538	-3.971e-5	-8.582e-5
-1.533	-3.949e-5	-8.661e-5
-1.528	-3.928e-5	-8.740e-5
-1.523	-3.907e-5	-8.818e-5
-1.518	-3.887e-5	-8.896e-5
-1.513	-3.866e-5	-8.973e-5
-1.508	-3.845e-5	-9.050e-5
-1.503	-3.823e-5	-9.126e-5
-1.498	-3.802e-5	-9.202e-5
-1.493	-3.779e-5	-9.278e-5
-1.488	-3.755e-5	-9.353e-5
-1.483	-3.729e-5	-9.428e-5
-1.478	-3.704e-5	-9.502e-5
-1.473	-3.676e-5	-9.575e-5
-1.468	-3.647e-5	-9.648e-5
-1.463	-3.618e-5	-9.721e-5
-1.458	-3.588e-5	-9.792e-5
-1.453	-3.558e-5	-9.864e-5
-1.448	-3.529e-5	-9.934e-5
-1.443	-3.498e-5	-1.000e-4
-1.438	-3.466e-5	-1.007e-4
-1.433	-3.433e-5	-1.014e-4
-1.428	-3.398e-5	-1.021e-4
-1.423	-3.362e-5	-1.028e-4
-1.418	-3.326e-5	-1.034e-4
-1.413	-3.290e-5	-1.041e-4
-1.408	-3.255e-5	-1.047e-4
-1.403	-3.219e-5	-1.054e-4
-1.398	-3.182e-5	-1.060e-4
-1.393	-3.143e-5	-1.067e-4
-1.388	-3.103e-5	-1.073e-4
-1.383	-3.061e-5	-1.079e-4
-1.378	-3.017e-5	-1.085e-4
-1.373	-2.973e-5	-1.091e-4
-1.368	-2.926e-5	-1.097e-4
-1.363	-2.875e-5	-1.102e-4
-1.358	-2.821e-5	-1.108e-4
-1.353	-2.764e-5	-1.114e-4
-1.348	-2.702e-5	-1.119e-4
-1.343	-2.638e-5	-1.124e-4
-1.338	-2.573e-5	-1.129e-4
-1.333	-2.502e-5	-1.134e-4
-1.328	-2.430e-5	-1.139e-4
-1.323	-2.354e-5	-1.144e-4
-1.318	-2.272e-5	-1.149e-4
-1.313	-2.189e-5	-1.153e-4
-1.308	-2.103e-5	-1.157e-4
-1.303	-2.013e-5	-1.161e-4
-1.298	-1.924e-5	-1.165e-4
-1.293	-1.833e-5	-1.169e-4
-1.288	-1.738e-5	-1.172e-4
-1.283	-1.644e-5	-1.175e-4
-1.278	-1.549e-5	-1.179e-4
-1.273	-1.451e-5	-1.181e-4
-1.268	-1.357e-5	-1.184e-4
-1.263	-1.265e-5	-1.187e-4
-1.258	-1.175e-5	-1.189e-4
-1.253	-1.088e-5	-1.191e-4
-1.248	-1.004e-5	-1.193e-4
-1.243	-9.187e-6	-1.195e-4
-1.238	-8.372e-6	-1.197e-4
-1.233	-7.591e-6	-1.198e-4
-1.228	-6.831e-6	-1.200e-4
-1.223	-6.132e-6	-1.201e-4
-1.218	-5.490e-6	-1.202e-4
-1.213	-4.859e-6	-1.203e-4
-1.208	-4.265e-6	-1.204e-4
-1.203	-3.697e-6	-1.205e-4
-1.198	-3.148e-6	-1.205e-4
-1.193	-2.637e-6	-1.206e-4
-1.188	-2.186e-6	-1.206e-4
-1.183	-1.772e-6	-1.206e-4
-1.178	-1.398e-6	-1.207e-4
-1.173	-1.052e-6	-1.207e-4
-1.168	-7.286e-7	-1.207e-4
-1.163	-4.102e-7	-1.207e-4
-1.158	-1.008e-7	-1.207e-4
-1.153	2.003e-7	-1.207e-4
-1.148	4.913e-7	-1.207e-4
-1.143	7.776e-7	-1.207e-4
-1.138	1.046e-6	-1.207e-4
-1.133	1.308e-6	-1.206e-4
-1.128	1.570e-6	-1.206e-4
-1.123	1.829e-6	-1.206e-4
-1.118	2.093e-6	-1.205e-4
-1.113	2.387e-6	-1.205e-4
-1.108	2.704e-6	-1.204e-4
-1.103	3.057e-6	-1.204e-4
-1.098	3.452e-6	-1.203e-4
-1.093	3.884e-6	-1.202e-4
-1.088	4.363e-6	-1.201e-4
-1.083	4.903e-6	-1.200e-4
-1.078	5.509e-6	-1.199e-4
-1.073	6.194e-6	-1.198e-4
-1.068	6.958e-6	-1.197e-4
-1.063	7.807e-6	-1.195e-4
-1.058	8.764e-6	-1.193e-4
-1.053	9.836e-6	-1.191e-4
-1.048	1.104e-5	-1.189e-4
-1.043	1.240e-5	-1.187e-4
-1.038	1.390e-5	-1.184e-4
-1.033	1.556e-5	-1.181e-4
-1.028	1.740e-5	-1.177e-4
-1.023	1.940e-5	-1.173e-4
-1.018	2.159e-5	-1.169e-4
-1.013	2.399e-5	-1.164e-4
-1.008	2.659e-5	-1.159e-4
-1.003	2.940e-5	-1.153e-4
-0.998	3.242e-5	-1.147e-4
-0.993	3.563e-5	-1.140e-4
-0.988	3.904e-5	-1.132e-4
-0.983	4.267e-5	-1.123e-4
-0.978	4.647e-5	-1.114e-4
-0.973	5.047e-5	-1.104e-4
-0.968	5.463e-5	-1.093e-4
-0.963	5.892e-5	-1.081e-4
-0.958	6.334e-5	-1.068e-4
-0.953	6.788e-5	-1.055e-4
-0.948	7.246e-5	-1.040e-4
-0.943	7.707e-5	-1.025e-4
-0.938	8.167e-5	-1.009e-4
-0.933	8.620e-5	-9.914e-5
-0.928	9.063e-5	-9.732e-5
-0.923	9.495e-5	-9.542e-5
-0.918	9.908e-5	-9.344e-5
-0.913	1.030e-4	-9.138e-5
-0.908	1.067e-4	-8.925e-5
-0.903	1.102e-4	-8.704e-5
-0.898	1.133e-4	-8.478e-5
-0.893	1.160e-4	-8.246e-5
-0.888	1.184e-4	-8.009e-5
-0.883	1.204e-4	-7.768e-5
-0.878	1.220e-4	-7.524e-5
-0.873	1.233e-4	-7.278e-5
-0.868	1.242e-4	-7.029e-5
-0.863	1.247e-4	-6.780e-5
-0.858	1.248e-4	-6.530e-5
-0.853	1.247e-4	-6.281e-5
-0.848	1.243e-4	-6.032e-5
-0.843	1.237e-4	-5.785e-5
-0.838	1.229e-4	-5.539e-5
-0.833	1.218e-4	-5.296e-5
-0.828	1.206e-4	-5.054e-5
-0.823	1.192e-4	-4.816e-5
-0.818	1.178e-4	-4.580e-5
-0.813	1.163e-4	-4.348e-5
-0.808	1.147e-4	-4.118e-5
-0.803	1.131e-4	-3.892e-5
-0.798	1.115e-4	-3.669e-5
-0.793	1.098e-4	-3.450e-5
-0.788	1.082e-4	-3.233e-5
-0.783	1.066e-4	-3.020e-5
-0.778	1.049e-4	-2.810e-5
-0.773	1.034e-4	-2.604e-5
-0.768	1.018e-4	-2.400e-5
-0.763	1.003e-4	-2.199e-5
-0.758	9.879e-5	-2.002e-5
-0.753	9.732e-5	-1.807e-5
-0.748	9.590e-5	-1.615e-5
-0.743	9.453e-5	-1.426e-5
-0.738	9.319e-5	-1.240e-5
-0.733	9.187e-5	-1.056e-5
-0.728	9.061e-5	-8.749e-6
-0.723	8.939e-5	-6.961e-6
-0.718	8.820e-5	-5.197e-6
-0.713	8.705e-5	-3.456e-6
-0.708	8.593e-5	-1.737e-6
-0.703	8.484e-5	-4.045e-8
-0.698	8.379e-5	1.635e-6
-0.693	8.277e-5	3.291e-6
-0.688	8.179e-5	4.927e-6
-0.683	8.085e-5	6.544e-6
-0.678	7.993e-5	8.142e-6
-0.673	7.903e-5	9.723e-6
-0.668	7.816e-5	1.129e-5
-0.663	7.732e-5	1.283e-5
-0.658	7.650e-5	1.436e-5
-0.653	7.570e-5	1.588e-5
-0.648	7.493e-5	1.737e-5
-0.643	7.419e-5	1.886e-5
-0.638	7.346e-5	2.033e-5
-0.633	7.274e-5	2.178e-5
-0.628	7.200e-5	2.322e-5
-0.623	7.128e-5	2.465e-5
-0.618	7.058e-5	2.606e-5
-0.613	6.994e-5	2.746e-5
-0.608	6.933e-5	2.885e-5
-0.603	6.876e-5	3.022e-5
-0.598	6.817e-5	3.158e-5
-0.593	6.758e-5	3.294e-5
-0.588	6.701e-5	3.428e-5
-0.583	6.646e-5	3.560e-5
-0.578	6.593e-5	3.692e-5
-0.573	6.544e-5	3.823e-5
-0.568	6.495e-5	3.953e-5
-0.563	6.446e-5	4.082e-5
-0.558	6.398e-5	4.210e-5
-0.553	6.351e-5	4.337e-5
-0.548	6.306e-5	4.463e-5
-0.543	6.261e-5	4.588e-5
-0.538	6.218e-5	4.713e-5
-0.533	6.176e-5	4.836e-5
-0.528	6.134e-5	4.959e-5
-0.523	6.094e-5	5.081e-5
-0.518	6.054e-5	5.202e-5
-0.513	6.015e-5	5.322e-5
-0.508	5.975e-5	5.442e-5
-0.503	5.936e-5	5.560e-5
-0.498	5.898e-5	5.678e-5
-0.493	5.861e-5	5.796e-5
-0.488	5.825e-5	5.912e-5
-0.483	5.789e-5	6.028e-5
-0.478	5.752e-5	6.143e-5
-0.473	5.716e-5	6.257e-5
-0.468	5.680e-5	6.371e-5
-0.463	5.645e-5	6.484e-5
-0.458	5.611e-5	6.596e-5
-0.453	5.578e-5	6.707e-5
-0.448	5.544e-5	6.818e-5
-0.443	5.511e-5	6.929e-5
-0.438	5.477e-5	7.038e-5
-0.433	5.443e-5	7.147e-5
-0.428	5.409e-5	7.255e-5
-0.423	5.377e-5	7.363e-5
-0.418	5.344e-5	7.470e-5
-0.413	5.313e-5	7.576e-5
-0.408	5.283e-5	7.681e-5
-0.403	5.251e-5	7.786e-5
-0.398	5.219e-5	7.891e-5
-0.393	5.188e-5	7.995e-5
-0.388	5.156e-5	8.098e-5
-0.383	5.125e-5	8.200e-5
-0.378	5.095e-5	8.302e-5
-0.373	5.064e-5	8.403e-5
-0.368	5.034e-5	8.504e-5
-0.363	5.004e-5	8.604e-5
-0.358	4.973e-5	8.704e-5
-0.353	4.941e-5	8.802e-5
-0.348	4.910e-5	8.901e-5
-0.343	4.879e-5	8.998e-5
-0.338	4.850e-5	9.095e-5
-0.333	4.821e-5	9.192e-5
-0.328	4.791e-5	9.288e-5
-0.323	4.763e-5	9.383e-5
-0.318	4.734e-5	9.477e-5
-0.313	4.704e-5	9.572e-5
-0.308	4.675e-5	9.665e-5
-0.303	4.646e-5	9.758e-5
-0.298	4.618e-5	9.850e-5
-0.293	4.590e-5	9.942e-5
-0.288	4.563e-5	1.003e-4
-0.283	4.534e-5	1.012e-4
-0.278	4.506e-5	1.021e-4
-0.273	4.477e-5	1.030e-4
-0.268	4.449e-5	1.039e-4
-0.263	4.422e-5	1.048e-4
-0.258	4.395e-5	1.057e-4
-0.253	4.369e-5	1.066e-4
-0.248	4.343e-5	1.074e-4
-0.243	4.317e-5	1.083e-4
-0.238	4.290e-5	1.092e-4
-0.233	4.264e-5	1.100e-4
-0.228	4.239e-5	1.109e-4
-0.223	4.214e-5	1.117e-4
-0.218	4.190e-5	1.125e-4
-0.213	4.165e-5	1.134e-4
-0.208	4.140e-5	1.142e-4
-0.203	4.114e-5	1.150e-4
-0.202	3.943e-5	7.886e-7
-0.207	3.868e-5	1.562e-6
-0.212	3.798e-5	2.322e-6
-0.217	3.733e-5	3.069e-6
-0.222	3.673e-5	3.803e-6
-0.227	3.617e-5	4.527e-6
-0.232	3.564e-5	5.240e-6
-0.237	3.513e-5	5.942e-6
-0.242	3.465e-5	6.635e-6
-0.247	3.418e-5	7.319e-6
-0.252	3.373e-5	7.993e-6
-0.257	3.329e-5	8.659e-6
-0.262	3.286e-5	9.316e-6
-0.267	3.245e-5	9.966e-6
-0.272	3.205e-5	1.061e-5
-0.277	3.167e-5	1.124e-5
-0.282	3.130e-5	1.187e-5
-0.287	3.095e-5	1.249e-5
-0.292	3.060e-5	1.310e-5
-0.297	3.025e-5	1.370e-5
-0.302	2.992e-5	1.430e-5
-0.307	2.958e-5	1.489e-5
-0.312	2.926e-5	1.548e-5
-0.317	2.893e-5	1.606e-5
-0.322	2.862e-5	1.663e-5
-0.327	2.831e-5	1.719e-5
-0.332	2.801e-5	1.775e-5
-0.337	2.771e-5	1.831e-5
-0.342	2.741e-5	1.886e-5
-0.347	2.711e-5	1.940e-5
-0.352	2.682e-5	1.994e-5
-0.357	2.652e-5	2.047e-5
-0.362	2.624e-5	2.099e-5
-0.367	2.597e-5	2.151e-5
-0.372	2.570e-5	2.202e-5
-0.377	2.543e-5	2.253e-5
-0.382	2.516e-5	2.304e-5
-0.387	2.489e-5	2.353e-5
-0.392	2.462e-5	2.403e-5
-0.397	2.435e-5	2.451e-5
-0.402	2.409e-5	2.499e-5
-0.407	2.385e-5	2.547e-5
-0.412	2.361e-5	2.594e-5
-0.417	2.336e-5	2.641e-5
-0.422	2.313e-5	2.687e-5
-0.427	2.290e-5	2.733e-5
-0.432	2.266e-5	2.778e-5
-0.437	2.243e-5	2.823e-5
-0.442	2.220e-5	2.868e-5
-0.447	2.197e-5	2.912e-5
-0.452	2.176e-5	2.955e-5
-0.457	2.155e-5	2.998e-5
-0.462	2.133e-5	3.041e-5
-0.467	2.112e-5	3.083e-5
-0.472	2.092e-5	3.125e-5
-0.477	2.072e-5	3.167e-5
-0.482	2.053e-5	3.208e-5
-0.487	2.035e-5	3.248e-5
-0.492	2.016e-5	3.289e-5
-0.497	1.998e-5	3.329e-5
-0.502	1.979e-5	3.368e-5
-0.507	1.960e-5	3.407e-5
-0.512	1.941e-5	3.446e-5
-0.517	1.922e-5	3.485e-5
-0.522	1.904e-5	3.523e-5
-0.527	1.886e-5	3.560e-5
-0.532	1.869e-5	3.598e-5
-0.537	1.851e-5	3.635e-5
-0.542	1.835e-5	3.671e-5
-0.547	1.819e-5	3.708e-5
-0.552	1.802e-5	3.744e-5
-0.557	1.786e-5	3.780e-5
-0.562	1.770e-5	3.815e-5
-0.567	1.754e-5	3.850e-5
-0.572	1.740e-5	3.885e-5
-0.577	1.726e-5	3.919e-5
-0.582	1.712e-5	3.954e-5
-0.587	1.699e-5	3.988e-5
-0.592	1.687e-5	4.021e-5
-0.597	1.674e-5	4.055e-5
-0.602	1.663e-5	4.088e-5
-0.607	1.652e-5	4.121e-5
-0.612	1.642e-5	4.154e-5
-0.617	1.633e-5	4.187e-5
-0.622	1.624e-5	4.219e-5
-0.627	1.615e-5	4.251e-5
-0.632	1.607e-5	4.284e-5
-0.637	1.600e-5	4.316e-5
-0.642	1.592e-5	4.347e-5
-0.647	1.587e-5	4.379e-5
-0.652	1.582e-5	4.411e-5
-0.657	1.576e-5	4.442e-5
-0.662	1.571e-5	4.474e-5
-0.667	1.566e-5	4.505e-5
-0.672	1.559e-5	4.536e-5
-0.677	1.553e-5	4.567e-5
-0.682	1.547e-5	4.598e-5
-0.687	1.541e-5	4.629e-5
-0.692	1.535e-5	4.660e-5
-0.697	1.529e-5	4.690e-5
-0.702	1.523e-5	4.721e-5
-0.707	1.516e-5	4.751e-5
-0.712	1.509e-5	4.781e-5
-0.717	1.501e-5	4.811e-5
-0.722	1.495e-5	4.841e-5
-0.727	1.488e-5	4.871e-5
-0.732	1.481e-5	4.901e-5
-0.737	1.474e-5	4.930e-5
-0.742	1.466e-5	4.959e-5
-0.747	1.457e-5	4.989e-5
-0.752	1.448e-5	5.017e-5
-0.757	1.439e-5	5.046e-5
-0.762	1.430e-5	5.075e-5
-0.767	1.423e-5	5.103e-5
-0.772	1.415e-5	5.132e-5
-0.777	1.406e-5	5.160e-5
-0.782	1.395e-5	5.188e-5
-0.787	1.384e-5	5.215e-5
-0.792	1.373e-5	5.243e-5
-0.797	1.363e-5	5.270e-5
-0.802	1.353e-5	5.297e-5
-0.807	1.341e-5	5.324e-5
-0.812	1.329e-5	5.350e-5
-0.817	1.315e-5	5.377e-5
-0.822	1.300e-5	5.403e-5
-0.827	1.285e-5	5.428e-5
-0.832	1.270e-5	5.454e-5
-0.837	1.254e-5	5.479e-5
-0.842	1.238e-5	5.504e-5
-0.847	1.220e-5	5.528e-5
-0.852	1.201e-5	5.552e-5
-0.857	1.181e-5	5.576e-5
-0.862	1.159e-5	5.599e-5
-0.867	1.136e-5	5.622e-5
-0.872	1.112e-5	5.644e-5
-0.877	1.087e-5	5.666e-5
-0.882	1.060e-5	5.687e-5
-0.887	1.034e-5	5.708e-5
-0.892	1.005e-5	5.728e-5
-0.897	9.751e-6	5.747e-5
-0.902	9.432e-6	5.766e-5
-0.907	9.103e-6	5.784e-5
-0.912	8.768e-6	5.802e-5
-0.917	8.437e-6	5.819e-5
-0.922	8.105e-6	5.835e-5
-0.927	7.770e-6	5.850e-5
-0.932	7.427e-6	5.865e-5
-0.937	7.070e-6	5.879e-5
-0.942	6.703e-6	5.893e-5
-0.947	6.333e-6	5.905e-5
-0.952	5.967e-6	5.917e-5
-0.957	5.605e-6	5.929e-5
-0.962	5.256e-6	5.939e-5
-0.967	4.913e-6	5.949e-5
-0.972	4.582e-6	5.958e-5
-0.977	4.262e-6	5.967e-5
-0.982	3.951e-6	5.974e-5
-0.987	3.632e-6	5.982e-5
-0.992	3.313e-6	5.988e-5
-0.997	2.993e-6	5.994e-5
-1.002	2.683e-6	6.000e-5
-1.007	2.386e-6	6.004e-5
-1.012	2.096e-6	6.009e-5
-1.017	1.802e-6	6.012e-5
-1.022	1.504e-6	6.015e-5
-1.027	1.205e-6	6.018e-5
-1.032	9.130e-7	6.020e-5
-1.037	6.264e-7	6.021e-5
-1.042	3.347e-7	6.021e-5
-1.047	2.815e-8	6.022e-5
-1.052	-2.976e-7	6.021e-5
-1.057	-6.435e-7	6.020e-5
-1.062	-1.009e-6	6.018e-5
-1.067	-1.396e-6	6.015e-5
-1.072	-1.806e-6	6.011e-5
-1.077	-2.242e-6	6.007e-5
-1.082	-2.714e-6	6.001e-5
-1.087	-3.238e-6	5.995e-5
-1.092	-3.819e-6	5.987e-5
-1.097	-4.473e-6	5.978e-5
-1.102	-5.192e-6	5.968e-5
-1.107	-5.962e-6	5.956e-5
-1.112	-6.803e-6	5.942e-5
-1.117	-7.734e-6	5.927e-5
-1.122	-8.753e-6	5.909e-5
-1.127	-9.901e-6	5.890e-5
-1.132	-1.118e-5	5.867e-5
-1.137	-1.259e-5	5.842e-5
-1.142	-1.417e-5	5.814e-5
-1.147	-1.593e-5	5.782e-5
-1.152	-1.785e-5	5.746e-5
-1.157	-1.994e-5	5.706e-5
-1.162	-2.222e-5	5.662e-5
-1.167	-2.466e-5	5.612e-5
-1.172	-2.731e-5	5.558e-5
-1.177	-3.020e-5	5.497e-5
-1.182	-3.334e-5	5.431e-5
-1.187	-3.676e-5	5.357e-5
-1.192	-4.049e-5	5.276e-5
-1.197	-4.446e-5	5.187e-5
-1.202	-4.866e-5	5.090e-5
-1.207	-5.311e-5	4.984e-5
-1.212	-5.780e-5	4.868e-5
-1.217	-6.276e-5	4.743e-5
-1.222	-6.798e-5	4.607e-5
-1.227	-7.341e-5	4.460e-5
-1.232	-7.905e-5	4.302e-5
-1.237	-8.486e-5	4.132e-5
-1.242	-9.083e-5	3.950e-5
-1.247	-9.698e-5	3.756e-5
-1.252	-1.033e-4	3.550e-5
-1.257	-1.096e-4	3.331e-5
-1.262	-1.160e-4	3.099e-5
-1.267	-1.221e-4	2.855e-5
-1.272	-1.280e-4	2.599e-5
-1.277	-1.335e-4	2.332e-5
-1.282	-1.387e-4	2.054e-5
-1.287	-1.435e-4	1.767e-5
-1.292	-1.481e-4	1.471e-5
-1.297	-1.524e-4	1.166e-5
-1.302	-1.564e-4	8.535e-6
-1.307	-1.602e-4	5.330e-6
-1.312	-1.638e-4	2.055e-6
-1.317	-1.670e-4	-1.285e-6
-1.322	-1.698e-4	-4.680e-6
-1.327	-1.722e-4	-8.124e-6
-1.332	-1.741e-4	-1.160e-5
-1.337	-1.755e-4	-1.511e-5
-1.342	-1.764e-4	-1.864e-5
-1.347	-1.769e-4	-2.218e-5
-1.352	-1.769e-4	-2.572e-5
-1.357	-1.764e-4	-2.925e-5
-1.362	-1.754e-4	-3.276e-5
-1.367	-1.740e-4	-3.624e-5
-1.372	-1.723e-4	-3.968e-5
-1.377	-1.702e-4	-4.309e-5
-1.382	-1.680e-4	-4.645e-5
-1.387	-1.658e-4	-4.976e-5
-1.392	-1.635e-4	-5.303e-5
-1.397	-1.612e-4	-5.626e-5
-1.402	-1.590e-4	-5.944e-5
-1.407	-1.567e-4	-6.257e-5
-1.412	-1.544e-4	-6.566e-5
-1.417	-1.522e-4	-6.870e-5
-1.422	-1.501e-4	-7.171e-5
-1.427	-1.480e-4	-7.467e-5
-1.432	-1.460e-4	-7.759e-5
-1.437	-1.440e-4	-8.047e-5
-1.442	-1.422e-4	-8.331e-5
-1.447	-1.403e-4	-8.612e-5
-1.452	-1.386e-4	-8.889e-5
-1.457	-1.369e-4	-9.163e-5
-1.462	-1.352e-4	-9.433e-5
-1.467	-1.336e-4	-9.700e-5
-1.472	-1.321e-4	-9.964e-5
-1.477	-1.306e-4	-1.023e-4
-1.482	-1.292e-4	-1.048e-4
-1.487	-1.279e-4	-1.074e-4
-1.492	-1.266e-4	-1.099e-4
-1.497	-1.254e-4	-1.124e-4
-1.502	-1.242e-4	-1.149e-4
-1.507	-1.230e-4	-1.174e-4
-1.512	-1.219e-4	-1.198e-4
-1.517	-1.208e-4	-1.222e-4
-1.522	-1.198e-4	-1.246e-4
-1.527	-1.188e-4	-1.270e-4
-1.532	-1.178e-4	-1.294e-4
-1.537	-1.169e-4	-1.317e-4
-1.542	-1.160e-4	-1.340e-4
-1.547	-1.151e-4	-1.363e-4
-1.552	-1.142e-4	-1.386e-4
-1.557	-1.134e-4	-1.409e-4
-1.562	-1.126e-4	-1.431e-4
-1.567	-1.118e-4	-1.454e-4
-1.572	-1.110e-4	-1.476e-4
-1.577	-1.103e-4	-1.498e-4
-1.582	-1.095e-4	-1.520e-4
-1.587	-1.088e-4	-1.541e-4
-1.592	-1.081e-4	-1.563e-4
-1.597	-1.074e-4	-1.585e-4
-1.602	-1.068e-4	-1.606e-4
-1.607	-1.061e-4	-1.627e-4
-1.612	-1.055e-4	-1.648e-4
-1.617	-1.049e-4	-1.669e-4
-1.622	-1.043e-4	-1.690e-4
-1.627	-1.037e-4	-1.711e-4
-1.632	-1.032e-4	-1.732e-4
-1.637	-1.026e-4	-1.752e-4
-1.642	-1.021e-4	-1.772e-4
-1.647	-1.015e-4	-1.793e-4
-1.652	-1.010e-4	-1.813e-4
-1.657	-1.005e-4	-1.833e-4
-1.662	-1.000e-4	-1.853e-4
-1.667	-9.953e-5	-1.873e-4
-1.672	-9.906e-5	-1.893e-4
-1.677	-9.860e-5	-1.912e-4
-1.682	-9.815e-5	-1.932e-4
-1.687	-9.773e-5	-1.952e-4
-1.692	-9.731e-5	-1.971e-4
-1.697	-9.688e-5	-1.991e-4
-1.702	-9.646e-5	-2.010e-4
-1.707	-9.605e-5	-2.029e-4
-1.712	-9.567e-5	-2.048e-4
-1.717	-9.532e-5	-2.067e-4
-1.722	-9.500e-5	-2.086e-4
-1.727	-9.470e-5	-2.105e-4
-1.732	-9.440e-5	-2.124e-4
-1.737	-9.410e-5	-2.143e-4
-1.742	-9.380e-5	-2.162e-4
-1.747	-9.352e-5	-2.180e-4
-1.752	-9.326e-5	-2.199e-4
-1.757	-9.304e-5	-2.218e-4
-1.762	-9.283e-5	-2.236e-4
-1.767	-9.262e-5	-2.255e-4
-1.772	-9.242e-5	-2.273e-4
-1.777	-9.222e-5	-2.292e-4
-1.782	-9.204e-5	-2.310e-4
-1.787	-9.192e-5	-2.328e-4
-1.792	-9.182e-5	-2.347e-4
-1.797	-9.173e-5	-2.365e-4
-1.802	-9.166e-5	-2.383e-4
-1.807	-9.159e-5	-2.402e-4
-1.812	-9.152e-5	-2.420e-4
-1.817	-9.148e-5	-2.438e-4
-1.822	-9.147e-5	-2.457e-4
-1.827	-9.150e-5	-2.475e-4
-1.832	-9.158e-5	-2.493e-4
-1.837	-9.168e-5	-2.512e-4
-1.842	-9.182e-5	-2.530e-4
-1.847	-9.198e-5	-2.548e-4
-1.852	-9.215e-5	-2.567e-4
-1.857	-9.235e-5	-2.585e-4
-1.862	-9.261e-5	-2.604e-4
-1.867	-9.291e-5	-2.622e-4
-1.872	-9.328e-5	-2.641e-4
-1.877	-9.372e-5	-2.660e-4
-1.882	-9.422e-5	-2.679e-4
-1.887	-9.477e-5	-2.698e-4
-1.892	-9.536e-5	-2.717e-4
-1.897	-9.601e-5	-2.736e-4
-1.898	-8.849e-5	-1.770e-6
-1.893	-8.491e-5	-3.468e-6
-1.888	-8.175e-5	-5.103e-6
-1.883	-7.900e-5	-6.683e-6
-1.878	-7.676e-5	-8.218e-6
-1.873	-7.486e-5	-9.715e-6
-1.868	-7.317e-5	-1.118e-5
-1.863	-7.159e-5	-1.261e-5
-1.858	-7.014e-5	-1.401e-5
-1.853	-6.881e-5	-1.539e-5
-1.848	-6.758e-5	-1.674e-5
-1.843	-6.644e-5	-1.807e-5
-1.838	-6.537e-5	-1.938e-5
-1.833	-6.436e-5	-2.066e-5
-1.828	-6.340e-5	-2.193e-5
-1.823	-6.247e-5	-2.318e-5
-1.818	-6.160e-5	-2.441e-5
-1.813	-6.077e-5	-2.563e-5
-1.808	-5.998e-5	-2.683e-5
-1.803	-5.922e-5	-2.801e-5
-1.798	-5.848e-5	-2.918e-5
-1.793	-5.775e-5	-3.034e-5
-1.788	-5.705e-5	-3.148e-5
-1.783	-5.637e-5	-3.261e-5
-1.778	-5.575e-5	-3.372e-5
-1.773	-5.516e-5	-3.482e-5
-1.768	-5.458e-5	-3.592e-5
-1.763	-5.401e-5	-3.700e-5
-1.758	-5.347e-5	-3.807e-5
-1.753	-5.293e-5	-3.912e-5
-1.748	-5.242e-5	-4.017e-5
-1.743	-5.194e-5	-4.121e-5
-1.738	-5.146e-5	-4.224e-5
-1.733	-5.099e-5	-4.326e-5
-1.728	-5.054e-5	-4.427e-5
-1.723	-5.008e-5	-4.527e-5
-1.718	-4.962e-5	-4.626e-5
-1.713	-4.916e-5	-4.725e-5
-1.708	-4.872e-5	-4.822e-5
-1.703	-4.830e-5	-4.919e-5
-1.698	-4.791e-5	-5.015e-5
-1.693	-4.751e-5	-5.110e-5
-1.688	-4.712e-5	-5.204e-5
-1.683	-4.672e-5	-5.297e-5
-1.678	-4.631e-5	-5.390e-5
-1.673	-4.593e-5	-5.482e-5
-1.668	-4.554e-5	-5.573e-5
-1.663	-4.517e-5	-5.663e-5
-1.658	-4.481e-5	-5.753e-5
-1.653	-4.446e-5	-5.842e-5
-1.648	-4.411e-5	-5.930e-5
-1.643	-4.376e-5	-6.018e-5
-1.638	-4.341e-5	-6.104e-5
-1.633	-4.308e-5	-6.191e-5
-1.628	-4.278e-5	-6.276e-5
-1.623	-4.251e-5	-6.361e-5
-1.618	-4.224e-5	-6.446e-5
-1.613	-4.198e-5	-6.530e-5
-1.608	-4.173e-5	-6.613e-5
-1.603	-4.148e-5	-6.696e-5
-1.598	-4.125e-5	-6.778e-5
-1.593	-4.103e-5	-6.861e-5
-1.588	-4.082e-5	-6.942e-5
-1.583	-4.063e-5	-7.023e-5
-1.578	-4.044e-5	-7.104e-5
-1.573	-4.027e-5	-7.185e-5
-1.568	-4.010e-5	-7.265e-5
-1.563	-3.993e-5	-7.345e-5
-1.558	-3.977e-5	-7.424e-5
-1.553	-3.960e-5	-7.504e-5
-1.548	-3.944e-5	-7.582e-5
-1.543	-3.928e-5	-7.661e-5
-1.538	-3.911e-5	-7.739e-5
-1.533	-3.893e-5	-7.817e-5
-1.528	-3.875e-5	-7.895e-5
-1.523	-3.856e-5	-7.972e-5
-1.518	-3.839e-5	-8.049e-5
-1.513	-3.821e-5	-8.125e-5
-1.508	-3.801e-5	-8.201e-5
-1.503	-3.780e-5	-8.277e-5
-1.498	-3.757e-5	-8.352e-5
-1.493	-3.733e-5	-8.426e-5
-1.488	-3.709e-5	-8.501e-5
-1.483	-3.683e-5	-8.574e-5
-1.478	-3.656e-5	-8.647e-5
-1.473	-3.629e-5	-8.720e-5
-1.468	-3.602e-5	-8.792e-5
-1.463	-3.575e-5	-8.863e-5
-1.458	-3.547e-5	-8.934e-5
-1.453	-3.518e-5	-9.005e-5
-1.448	-3.489e-5	-9.075e-5
-1.443	-3.459e-5	-9.144e-5
-1.438	-3.428e-5	-9.212e-5
-1.433	-3.397e-5	-9.280e-5
-1.428	-3.367e-5	-9.348e-5
-1.423	-3.336e-5	-9.414e-5
-1.418	-3.304e-5	-9.480e-5
-1.413	-3.273e-5	-9.546e-5
-1.408	-3.240e-5	-9.611e-5
-1.403	-3.207e-5	-9.675e-5
-1.398	-3.174e-5	-9.738e-5
-1.393	-3.138e-5	-9.801e-5
-1.388	-3.101e-5	-9.863e-5
-1.383	-3.061e-5	-9.924e-5
-1.378	-3.018e-5	-9.985e-5
-1.373	-2.974e-5	-1.004e-4
-1.368	-2.927e-5	-1.010e-4
-1.363	-2.876e-5	-1.016e-4
-1.358	-2.824e-5	-1.022e-4
-1.353	-2.769e-5	-1.027e-4
-1.348	-2.711e-5	-1.033e-4
-1.343	-2.650e-5	-1.038e-4
-1.338	-2.585e-5	-1.043e-4
-1.333	-2.515e-5	-1.048e-4
-1.328	-2.441e-5	-1.053e-4
-1.323	-2.364e-5	-1.058e-4
-1.318	-2.284e-5	-1.062e-4
-1.313	-2.203e-5	-1.067e-4
-1.308	-2.119e-5	-1.071e-4
-1.303	-2.032e-5	-1.075e-4
-1.298	-1.942e-5	-1.079e-4
-1.293	-1.849e-5	-1.083e-4
-1.288	-1.755e-5	-1.086e-4
-1.283	-1.663e-5	-1.089e-4
-1.278	-1.571e-5	-1.093e-4
-1.273	-1.480e-5	-1.096e-4
-1.268	-1.389e-5	-1.098e-4
-1.263	-1.298e-5	-1.101e-4
-1.258	-1.208e-5	-1.103e-4
-1.253	-1.121e-5	-1.106e-4
-1.248	-1.035e-5	-1.108e-4
-1.243	-9.530e-6	-1.110e-4
-1.238	-8.753e-6	-1.111e-4
-1.233	-8.010e-6	-1.113e-4
-1.228	-7.294e-6	-1.114e-4
-1.223	-6.605e-6	-1.116e-4
-1.218	-5.942e-6	-1.117e-4
-1.213	-5.309e-6	-1.118e-4
-1.208	-4.716e-6	-1.119e-4
-1.203	-4.169e-6	-1.120e-4
-1.198	-3.663e-6	-1.120e-4
-1.193	-3.199e-6	-1.121e-4
-1.188	-2.766e-6	-1.122e-4
-1.183	-2.352e-6	-1.122e-4
-1.178	-1.952e-6	-1.122e-4
-1.173	-1.566e-6	-1.123e-4
-1.168	-1.199e-6	-1.123e-4
-1.163	-8.589e-7	-1.123e-4
-1.158	-5.464e-7	-1.123e-4
-1.153	-2.511e-7	-1.123e-4
-1.148	3.642e-8	-1.123e-4
-1.143	3.248e-7	-1.123e-4
-1.138	6.182e-7	-1.123e-4
-1.133	9.147e-7	-1.123e-4
-1.128	1.220e-6	-1.123e-4
-1.123	1.534e-6	-1.122e-4
-1.118	1.866e-6	-1.122e-4
-1.113	2.219e-6	-1.122e-4
-1.108	2.597e-6	-1.121e-4
-1.103	3.007e-6	-1.121e-4
-1.098	3.464e-6	-1.120e-4
-1.093	3.968e-6	-1.119e-4
-1.088	4.531e-6	-1.118e-4
-1.083	5.155e-6	-1.117e-4
-1.078	5.844e-6	-1.116e-4
-1.073	6.611e-6	-1.115e-4
-1.068	7.474e-6	-1.113e-4
-1.063	8.441e-6	-1.111e-4
-1.058	9.524e-6	-1.109e-4
-1.053	1.073e-5	-1.107e-4
-1.048	1.207e-5	-1.105e-4
-1.043	1.356e-5	-1.102e-4
-1.038	1.519e-5	-1.099e-4
-1.033	1.699e-5	-1.096e-4
-1.028	1.896e-5	-1.092e-4
-1.023	2.112e-5	-1.088e-4
-1.018	2.345e-5	-1.083e-4
-1.013	2.598e-5	-1.078e-4
-1.008	2.869e-5	-1.072e-4
-1.003	3.158e-5	-1.066e-4
-0.998	3.471e-5	-1.059e-4
-0.993	3.807e-5	-1.051e-4
-0.988	4.164e-5	-1.043e-4
-0.983	4.543e-5	-1.034e-4
-0.978	4.940e-5	-1.024e-4
-0.973	5.351e-5	-1.013e-4
-0.968	5.778e-5	-1.002e-4
-0.963	6.219e-5	-9.893e-5
-0.958	6.668e-5	-9.760e-5
-0.953	7.127e-5	-9.617e-5
-0.948	7.592e-5	-9.465e-5
-0.943	8.056e-5	-9.304e-5
-0.938	8.521e-5	-9.134e-5
-0.933	8.981e-5	-8.954e-5
-0.928	9.430e-5	-8.765e-5
-0.923	9.867e-5	-8.568e-5
-0.918	1.029e-4	-8.362e-5
-0.913	1.068e-4	-8.149e-5
-0.908	1.105e-4	-7.928e-5
-0.903	1.138e-4	-7.700e-5
-0.898	1.168e-4	-7.467e-5
-0.893	1.195e-4	-7.228e-5
-0.888	1.218e-4	-6.984e-5
-0.883	1.237e-4	-6.737e-5
-0.878	1.253e-4	-6.486e-5
-0.873	1.266e-4	-6.233e-5
-0.868	1.274e-4	-5.978e-5
-0.863	1.279e-4	-5.722e-5
-0.858	1.280e-4	-5.466e-5
-0.853	1.279e-4	-5.210e-5
-0.848	1.275e-4	-4.955e-5
-0.843	1.268e-4	-4.702e-5
-0.838	1.259e-4	-4.450e-5
-0.833	1.249e-4	-4.200e-5
-0.828	1.237e-4	-3.953e-5
-0.823	1.223e-4	-3.708e-5
-0.818	1.208e-4	-3.467e-5
-0.813	1.193e-4	-3.228e-5
-0.808	1.178e-4	-2.992e-5
-0.803	1.161e-4	-2.760e-5
-0.798	1.145e-4	-2.531e-5
-0.793	1.128e-4	-2.306e-5
-0.788	1.112e-4	-2.083e-5
-0.783	1.095e-4	-1.864e-5
-0.778	1.079e-4	-1.648e-5
-0.773	1.063e-4	-1.436e-5
-0.768	1.047e-4	-1.226e-5
-0.763	1.032e-4	-1.020e-5
-0.758	1.017e-4	-8.167e-6
-0.753	1.002e-4	-6.163e-6
-0.748	9.874e-5	-4.188e-6
-0.743	9.734e-5	-2.241e-6
-0.738	9.598e-5	-3.219e-7
-0.733	9.465e-5	1.571e-6
-0.728	9.336e-5	3.438e-6
-0.723	9.209e-5	5.280e-6
-0.718	9.085e-5	7.097e-6
-0.713	8.965e-5	8.890e-6
-0.708	8.848e-5	1.066e-5
-0.703	8.734e-5	1.241e-5
-0.698	8.624e-5	1.413e-5
-0.693	8.517e-5	1.583e-5
-0.688	8.413e-5	1.752e-5
-0.683	8.312e-5	1.918e-5
-0.678	8.213e-5	2.082e-5
-0.673	8.117e-5	2.245e-5
-0.668	8.024e-5	2.405e-5
-0.663	7.933e-5	2.564e-5
-0.658	7.845e-5	2.721e-5
-0.653	7.759e-5	2.876e-5
-0.648	7.674e-5	3.029e-5
-0.643	7.591e-5	3.181e-5
-0.638	7.511e-5	3.331e-5
-0.633	7.434e-5	3.480e-5
-0.628	7.360e-5	3.627e-5
-0.623	7.288e-5	3.773e-5
-0.618	7.217e-5	3.917e-5
-0.613	7.148e-5	4.060e-5
-0.608	7.080e-5	4.202e-5
-0.603	7.014e-5	4.342e-5
-0.598	6.952e-5	4.481e-5
-0.593	6.891e-5	4.619e-5
-0.588	6.832e-5	4.756e-5
-0.583	6.775e-5	4.891e-5
-0.578	6.718e-5	5.025e-5
-0.573	6.663e-5	5.159e-5
-0.568	6.609e-5	5.291e-5
-0.563	6.557e-5	5.422e-5
-0.558	6.506e-5	5.552e-5
-0.553	6.458e-5	5.681e-5
-0.548	6.411e-5	5.810e-5
-0.543	6.366e-5	5.937e-5
-0.538	6.320e-5	6.063e-5
-0.533	6.275e-5	6.189e-5
-0.528	6.230e-5	6.313e-5
-0.523	6.186e-5	6.437e-5
-0.518	6.142e-5	6.560e-5
-0.513	6.101e-5	6.682e-5
-0.508	6.062e-5	6.803e-5
-0.503	6.022e-5	6.924e-5
-0.498	5.984e-5	7.043e-5
-0.493	5.946e-5	7.162e-5
-0.488	5.907e-5	7.280e-5
-0.483	5.870e-5	7.398e-5
-0.478	5.833e-5	7.514e-5
-0.473	5.796e-5	7.630e-5
-0.468	5.761e-5	7.746e-5
-0.463	5.728e-5	7.860e-5
-0.458	5.694e-5	7.974e-5
-0.453	5.661e-5	8.087e-5
-0.448	5.629e-5	8.200e-5
-0.443	5.595e-5	8.312e-5
-0.438	5.563e-5	8.423e-5
-0.433	5.533e-5	8.534e-5
-0.428	5.503e-5	8.644e-5
-0.423	5.475e-5	8.753e-5
-0.418	5.447e-5	8.862e-5
-0.413	5.418e-5	8.970e-5
-0.408	5.391e-5	9.078e-5
-0.403	5.364e-5	9.186e-5
-0.398	5.336e-5	9.292e-5
-0.393	5.310e-5	9.398e-5
-0.388	5.285e-5	9.504e-5
-0.383	5.259e-5	9.609e-5
-0.378	5.235e-5	9.714e-5
-0.373	5.211e-5	9.818e-5
-0.368	5.188e-5	9.922e-5
-0.363	5.165e-5	1.003e-4
-0.358	5.144e-5	1.013e-4
-0.353	5.121e-5	1.023e-4
-0.348	5.100e-5	1.033e-4
-0.343	5.079e-5	1.043e-4
-0.338	5.059e-5	1.054e-4
-0.333	5.039e-5	1.064e-4
-0.328	5.021e-5	1.074e-4
-0.323	5.002e-5	1.084e-4
-0.318	4.984e-5	1.094e-4
-0.313	4.966e-5	1.104e-4
-0.308	4.948e-5	1.113e-4
-0.303	4.930e-5	1.123e-4
-0.298	4.913e-5	1.133e-4
-0.293	4.896e-5	1.143e-4
-0.288	4.879e-5	1.153e-4
-0.283	4.863e-5	1.162e-4
-0.278	4.848e-5	1.172e-4
-0.273	4.833e-5	1.182e-4
-0.268	4.818e-5	1.191e-4
-0.263	4.802e-5	1.201e-4
-0.258	4.786e-5	1.211e-4
-0.253	4.770e-5	1.220e-4
-0.248	4.755e-5	1.230e-4
-0.243	4.742e-5	1.239e-4
-0.238	4.729e-5	1.249e-4
-0.233	4.716e-5	1.258e-4
-0.228	4.703e-5	1.267e-4
-0.223	4.690e-5	1.277e-4
-0.218	4.676e-5	1.286e-4
-0.213	4.662e-5	1.295e-4
-0.208	4.647e-5	1.305e-4
-0.203	4.633e-5	1.314e-4
-0.202	4.465e-5	8.930e-7
-0.207	4.401e-5	1.773e-6
-0.212	4.342e-5	2.642e-6
-0.217	4.287e-5	3.499e-6
-0.222	4.237e-5	4.346e-6
-0.227	4.191e-5	5.185e-6
-0.232	4.148e-5	6.014e-6
-0.237	4.108e-5	6.836e-6
-0.242	4.070e-5	7.650e-6
-0.247	4.033e-5	8.457e-6
-0.252	3.998e-5	9.256e-6
-0.257	3.962e-5	1.005e-5
-0.262	3.928e-5	1.083e-5
-0.267	3.895e-5	1.161e-5
-0.272	3.862e-5	1.239e-5
-0.277	3.832e-5	1.315e-5
-0.282	3.802e-5	1.391e-5
-0.287	3.773e-5	1.467e-5
-0.292	3.744e-5	1.542e-5
-0.297	3.716e-5	1.616e-5
-0.302	3.687e-5	1.690e-5
-0.307	3.659e-5	1.763e-5
-0.312	3.632e-5	1.835e-5
-0.317	3.605e-5	1.908e-5
-0.322	3.580e-5	1.979e-5
-0.327	3.554e-5	2.050e-5
-0.332	3.528e-5	2.121e-5
-0.337	3.502e-5	2.191e-5
-0.342	3.476e-5	2.260e-5
-0.347	3.451e-5	2.329e-5
-0.352	3.427e-5	2.398e-5
-0.357	3.403e-5	2.466e-5
-0.362	3.380e-5	2.534e-5
-0.367	3.356e-5	2.601e-5
-0.372	3.333e-5	2.667e-5
-0.377	3.309e-5	2.734e-5
-0.382	3.285e-5	2.799e-5
-0.387	3.262e-5	2.864e-5
-0.392	3.239e-5	2.929e-5
-0.397	3.216e-5	2.994e-5
-0.402	3.194e-5	3.057e-5
-0.407	3.171e-5	3.121e-5
-0.412	3.148e-5	3.184e-5
-0.417	3.126e-5	3.246e-5
-0.422	3.102e-5	3.308e-5
-0.427	3.080e-5	3.370e-5
-0.432	3.058e-5	3.431e-5
-0.437	3.036e-5	3.492e-5
-0.442	3.014e-5	3.552e-5
-0.447	2.992e-5	3.612e-5
-0.452	2.968e-5	3.671e-5
-0.457	2.945e-5	3.730e-5
-0.462	2.923e-5	3.789e-5
-0.467	2.900e-5	3.847e-5
-0.472	2.879e-5	3.904e-5
-0.477	2.858e-5	3.961e-5
-0.482	2.836e-5	4.018e-5
-0.487	2.815e-5	4.074e-5
-0.492	2.793e-5	4.130e-5
-0.497	2.772e-5	4.186e-5
-0.502	2.750e-5	4.241e-5
-0.507	2.728e-5	4.295e-5
-0.512	2.706e-5	4.349e-5
-0.517	2.684e-5	4.403e-5
-0.522	2.663e-5	4.456e-5
-0.527	2.641e-5	4.509e-5
-0.532	2.620e-5	4.562e-5
-0.537	2.599e-5	4.614e-5
-0.542	2.578e-5	4.665e-5
-0.547	2.557e-5	4.716e-5
-0.552	2.536e-5	4.767e-5
-0.557	2.515e-5	4.817e-5
-0.562	2.495e-5	4.867e-5
-0.567	2.475e-5	4.917e-5
-0.572	2.453e-5	4.966e-5
-0.577	2.432e-5	5.014e-5
-0.582	2.411e-5	5.063e-5
-0.587	2.389e-5	5.110e-5
-0.592	2.368e-5	5.158e-5
-0.597	2.348e-5	5.205e-5
-0.602	2.327e-5	5.251e-5
-0.607	2.305e-5	5.297e-5
-0.612	2.284e-5	5.343e-5
-0.617	2.261e-5	5.388e-5
-0.622	2.238e-5	5.433e-5
-0.627	2.216e-5	5.477e-5
-0.632	2.194e-5	5.521e-5
-0.637	2.172e-5	5.565e-5
-0.642	2.151e-5	5.608e-5
-0.647	2.129e-5	5.650e-5
-0.652	2.106e-5	5.692e-5
-0.657	2.084e-5	5.734e-5
-0.662	2.062e-5	5.775e-5
-0.667	2.040e-5	5.816e-5
-0.672	2.018e-5	5.856e-5
-0.677	1.996e-5	5.896e-5
-0.682	1.974e-5	5.936e-5
-0.687	1.952e-5	5.975e-5
-0.692	1.930e-5	6.014e-5
-0.697	1.908e-5	6.052e-5
-0.702	1.886e-5	6.089e-5
-0.707	1.866e-5	6.127e-5
-0.712	1.845e-5	6.164e-5
-0.717	1.824e-5	6.200e-5
-0.722	1.803e-5	6.236e-5
-0.727	1.780e-5	6.272e-5
-0.732	1.757e-5	6.307e-5
-0.737	1.734e-5	6.342e-5
-0.742	1.712e-5	6.376e-5
-0.747	1.689e-5	6.410e-5
-0.752	1.667e-5	6.443e-5
-0.757	1.645e-5	6.476e-5
-0.762	1.622e-5	6.508e-5
-0.767	1.597e-5	6.540e-5
-0.772	1.570e-5	6.572e-5
-0.777	1.543e-5	6.602e-5
-0.782	1.517e-5	6.633e-5
-0.787	1.490e-5	6.663e-5
-0.792	1.464e-5	6.692e-5
-0.797	1.436e-5	6.721e-5
-0.802	1.406e-5	6.749e-5
-0.807	1.375e-5	6.776e-5
-0.812	1.344e-5	6.803e-5
-0.817	1.312e-5	6.829e-5
-0.822	1.278e-5	6.855e-5
-0.827	1.244e-5	6.880e-5
-0.832	1.209e-5	6.904e-5
-0.837	1.172e-5	6.927e-5
-0.842	1.134e-5	6.950e-5
-0.847	1.094e-5	6.972e-5
-0.852	1.054e-5	6.993e-5
-0.857	1.012e-5	7.013e-5
-0.862	9.697e-6	7.033e-5
-0.867	9.262e-6	7.051e-5
-0.872	8.825e-6	7.069e-5
-0.877	8.382e-6	7.086e-5
-0.882	7.927e-6	7.101e-5
-0.887	7.457e-6	7.116e-5
-0.892	6.972e-6	7.130e-5
-0.897	6.477e-6	7.143e-5
-0.902	5.981e-6	7.155e-5
-0.907	5.484e-6	7.166e-5
-0.912	4.986e-6	7.176e-5
-0.917	4.484e-6	7.185e-5
-0.922	3.978e-6	7.193e-5
-0.927	3.476e-6	7.200e-5
-0.932	2.973e-6	7.206e-5
-0.937	2.474e-6	7.211e-5
-0.942	1.982e-6	7.215e-5
-0.947	1.498e-6	7.218e-5
-0.952	1.022e-6	7.220e-5
-0.957	5.561e-7	7.221e-5
-0.962	9.694e-8	7.221e-5
-0.967	-3.504e-7	7.221e-5
-0.972	-7.857e-7	7.219e-5
-0.977	-1.203e-6	7.217e-5
-0.982	-1.606e-6	7.213e-5
-0.987	-1.999e-6	7.209e-5
-0.992	-2.379e-6	7.205e-5
-0.997	-2.751e-6	7.199e-5
-1.002	-3.120e-6	7.193e-5
-1.007	-3.474e-6	7.186e-5
-1.012	-3.819e-6	7.178e-5
-1.017	-4.156e-6	7.170e-5
-1.022	-4.477e-6	7.161e-5
-1.027	-4.791e-6	7.151e-5
-1.032	-5.103e-6	7.141e-5
-1.037	-5.411e-6	7.130e-5
-1.042	-5.722e-6	7.119e-5
-1.047	-6.037e-6	7.107e-5
-1.052	-6.355e-6	7.094e-5
-1.057	-6.681e-6	7.081e-5
-1.062	-7.020e-6	7.067e-5
-1.067	-7.383e-6	7.052e-5
-1.072	-7.765e-6	7.036e-5
-1.077	-8.176e-6	7.020e-5
-1.082	-8.618e-6	7.003e-5
-1.087	-9.086e-6	6.985e-5
-1.092	-9.586e-6	6.966e-5
-1.097	-1.013e-5	6.945e-5
-1.102	-1.072e-5	6.924e-5
-1.107	-1.139e-5	6.901e-5
-1.112	-1.214e-5	6.877e-5
-1.117	-1.297e-5	6.851e-5
-1.122	-1.387e-5	6.823e-5
-1.127	-1.486e-5	6.793e-5
-1.132	-1.593e-5	6.762e-5
-1.137	-1.712e-5	6.727e-5
-1.142	-1.843e-5	6.690e-5
-1.147	-1.989e-5	6.651e-5
-1.152	-2.151e-5	6.608e-5
-1.157	-2.331e-5	6.561e-5
-1.162	-2.527e-5	6.510e-5
-1.167	-2.740e-5	6.456e-5
-1.172	-2.975e-5	6.396e-5
-1.177	-3.230e-5	6.332e-5
-1.182	-3.508e-5	6.261e-5
-1.187	-3.810e-5	6.185e-5
-1.192	-4.133e-5	6.103e-5
-1.197	-4.478e-5	6.013e-5
-1.202	-4.849e-5	5.916e-5
-1.207	-5.244e-5	5.811e-5
-1.212	-5.667e-5	5.698e-5
-1.217	-6.119e-5	5.575e-5
-1.222	-6.594e-5	5.444e-5
-1.227	-7.093e-5	5.302e-5
-1.232	-7.616e-5	5.149e-5
-1.237	-8.160e-5	4.986e-5
-1.242	-8.723e-5	4.812e-5
-1.247	-9.301e-5	4.626e-5
-1.252	-9.888e-5	4.428e-5
-1.257	-1.048e-4	4.218e-5
-1.262	-1.108e-4	3.997e-5
-1.267	-1.168e-4	3.763e-5
-1.272	-1.228e-4	3.517e-5
-1.277	-1.285e-4	3.260e-5
-1.282	-1.339e-4	2.993e-5
-1.287	-1.388e-4	2.715e-5
-1.292	-1.434e-4	2.428e-5
-1.297	-1.478e-4	2.133e-5
-1.302	-1.519e-4	1.829e-5
-1.307	-1.558e-4	1.517e-5
-1.312	-1.594e-4	1.198e-5
-1.317	-1.627e-4	8.730e-6
-1.322	-1.657e-4	5.416e-6
-1.327	-1.682e-4	2.051e-6
-1.332	-1.703e-4	-1.355e-6
-1.337	-1.720e-4	-4.796e-6
-1.342	-1.732e-4	-8.259e-6
-1.347	-1.739e-4	-1.174e-5
-1.352	-1.742e-4	-1.522e-5
-1.357	-1.739e-4	-1.870e-5
-1.362	-1.733e-4	-2.216e-5
-1.367	-1.722e-4	-2.561e-5
-1.372	-1.706e-4	-2.902e-5
-1.377	-1.688e-4	-3.240e-5
-1.382	-1.668e-4	-3.573e-5
-1.387	-1.646e-4	-3.902e-5
-1.392	-1.625e-4	-4.227e-5
-1.397	-1.603e-4	-4.548e-5
-1.402	-1.580e-4	-4.864e-5
-1.407	-1.558e-4	-5.176e-5
-1.412	-1.536e-4	-5.483e-5
-1.417	-1.514e-4	-5.786e-5
-1.422	-1.492e-4	-6.084e-5
-1.427	-1.471e-4	-6.378e-5
-1.432	-1.450e-4	-6.668e-5
-1.437	-1.430e-4	-6.954e-5
-1.442	-1.410e-4	-7.236e-5
-1.447	-1.390e-4	-7.514e-5
-1.452	-1.372e-4	-7.788e-5
-1.457	-1.354e-4	-8.059e-5
-1.462	-1.336e-4	-8.326e-5
-1.467	-1.319e-4	-8.590e-5
-1.472	-1.303e-4	-8.851e-5
-1.477	-1.288e-4	-9.109e-5
-1.482	-1.273e-4	-9.363e-5
-1.487	-1.259e-4	-9.615e-5
-1.492	-1.245e-4	-9.864e-5
-1.497	-1.232e-4	-1.011e-4
-1.502	-1.220e-4	-1.035e-4
-1.507	-1.208e-4	-1.060e-4
-1.512	-1.196e-4	-1.084e-4
-1.517	-1.185e-4	-1.107e-4
-1.522	-1.175e-4	-1.131e-4
-1.527	-1.165e-4	-1.154e-4
-1.532	-1.155e-4	-1.177e-4
-1.537	-1.146e-4	-1.200e-4
-1.542	-1.137e-4	-1.223e-4
-1.547	-1.128e-4	-1.245e-4
-1.552	-1.119e-4	-1.268e-4
-1.557	-1.111e-4	-1.290e-4
-1.562	-1.103e-4	-1.312e-4
-1.567	-1.095e-4	-1.334e-4
-1.572	-1.088e-4	-1.356e-4
-1.577	-1.080e-4	-1.377e-4
-1.582	-1.073e-4	-1.399e-4
-1.587	-1.066e-4	-1.420e-4
-1.592	-1.060e-4	-1.441e-4
-1.597	-1.053e-4	-1.462e-4
-1.602	-1.047e-4	-1.483e-4
-1.607	-1.041e-4	-1.504e-4
-1.612	-1.035e-4	-1.525e-4
-1.617	-1.029e-4	-1.545e-4
-1.622	-1.024e-4	-1.566e-4
-1.627	-1.018e-4	-1.586e-4
-1.632	-1.013e-4	-1.606e-4
-1.637	-1.008e-4	-1.627e-4
-1.642	-1.003e-4	-1.647e-4
-1.647	-9.980e-5	-1.667e-4
-1.652	-9.931e-5	-1.687e-4
-1.657	-9.883e-5	-1.706e-4
-1.662	-9.838e-5	-1.726e-4
-1.667	-9.795e-5	-1.746e-4
-1.672	-9.754e-5	-1.765e-4
-1.677	-9.714e-5	-1.784e-4
-1.682	-9.674e-5	-1.804e-4
-1.687	-9.635e-5	-1.823e-4
-1.692	-9.599e-5	-1.842e-4
-1.697	-9.566e-5	-1.861e-4
-1.702	-9.534e-5	-1.881e-4
-1.707	-9.506e-5	-1.900e-4
-1.712	-9.478e-5	-1.918e-4
-1.717	-9.451e-5	-1.937e-4
-1.722	-9.425e-5	-1.956e-4
-1.727	-9.401e-5	-1.975e-4
-1.732	-9.379e-5	-1.994e-4
-1.737	-9.360e-5	-2.013e-4
-1.742	-9.343e-5	-2.031e-4
-1.747	-9.327e-5	-2.050e-4
-1.752	-9.312e-5	-2.068e-4
-1.757	-9.298e-5	-2.087e-4
-1.762	-9.284e-5	-2.106e-4
-1.767	-9.273e-5	-2.124e-4
-1.772	-9.264e-5	-2.143e-4
-1.777	-9.258e-5	-2.161e-4
-1.782	-9.255e-5	-2.180e-4
-1.787	-9.254e-5	-2.198e-4
-1.792	-9.253e-5	-2.217e-4
-1.797	-9.254e-5	-2.235e-4
-1.802	-9.256e-5	-2.254e-4
-1.807	-9.259e-5	-2.272e-4
-1.812	-9.266e-5	-2.291e-4
-1.817	-9.276e-5	-2.309e-4
-1.822	-9.289e-5	-2.328e-4
-1.827	-9.307e-5	-2.347e-4
-1.832	-9.326e-5	-2.365e-4
-1.837	-9.346e-5	-2.384e-4
-1.842	-9.369e-5	-2.403e-4
-1.847	-9.394e-5	-2.421e-4
-1.852	-9.423e-5	-2.440e-4
-1.857	-9.459e-5	-2.459e-4
-1.862	-9.499e-5	-2.478e-4
-1.867	-9.542e-5	-2.497e-4
-1.872	-9.586e-5	-2.516e-4
-1.877	-9.633e-5	-2.536e-4
-1.882	-9.684e-5	-2.555e-4
-1.887	-9.744e-5	-2.575e-4
-1.892	-9.810e-5	-2.594e-4
-1.897	-9.883e-5	-2.614e-4
-1.898	-9.308e-5	-1.862e-6
-1.893	-8.971e-5	-3.656e-6
-1.888	-8.672e-5	-5.390e-6
-1.883	-8.409e-5	-7.072e-6
-1.878	-8.191e-5	-8.710e-6
-1.873	-8.002e-5	-1.031e-5
-1.868	-7.835e-5	-1.188e-5
-1.863	-7.679e-5	-1.341e-5
-1.858	-7.533e-5	-1.492e-5
-1.853	-7.399e-5	-1.640e-5
-1.848	-7.273e-5	-1.785e-5
-1.843	-7.154e-5	-1.929e-5
-1.838	-7.043e-5	-2.069e-5
-1.833	-6.938e-5	-2.208e-5
-1.828	-6.835e-5	-2.345e-5
-1.823	-6.740e-5	-2.480e-5
-1.818	-6.647e-5	-2.613e-5
-1.813	-6.557e-5	-2.744e-5
-1.808	-6.471e-5	-2.873e-5
-1.803	-6.387e-5	-3.001e-5
-1.798	-6.304e-5	-3.127e-5
-1.793	-6.226e-5	-3.252e-5
-1.788	-6.150e-5	-3.375e-5
-1.783	-6.076e-5	-3.496e-5
-1.778	-6.003e-5	-3.616e-5
-1.773	-5.932e-5	-3.735e-5
-1.768	-5.862e-5	-3.852e-5
-1.763	-5.795e-5	-3.968e-5
-1.758	-5.730e-5	-4.083e-5
-1.753	-5.666e-5	-4.196e-5
-1.748	-5.604e-5	-4.308e-5
-1.743	-5.543e-5	-4.419e-5
-1.738	-5.483e-5	-4.528e-5
-1.733	-5.425e-5	-4.637e-5
-1.728	-5.368e-5	-4.744e-5
-1.723	-5.310e-5	-4.850e-5
-1.718	-5.254e-5	-4.956e-5
-1.713	-5.200e-5	-5.060e-5
-1.708	-5.148e-5	-5.163e-5
-1.703	-5.097e-5	-5.264e-5
-1.698	-5.046e-5	-5.365e-5
-1.693	-4.994e-5	-5.465e-5
-1.688	-4.944e-5	-5.564e-5
-1.683	-4.895e-5	-5.662e-5
-1.678	-4.845e-5	-5.759e-5
-1.673	-4.798e-5	-5.855e-5
-1.668	-4.750e-5	-5.950e-5
-1.663	-4.702e-5	-6.044e-5
-1.658	-4.655e-5	-6.137e-5
-1.653	-4.608e-5	-6.229e-5
-1.648	-4.560e-5	-6.320e-5
-1.643	-4.514e-5	-6.411e-5
-1.638	-4.467e-5	-6.500e-5
-1.633	-4.420e-5	-6.588e-5
-1.628	-4.375e-5	-6.676e-5
-1.623	-4.330e-5	-6.762e-5
-1.618	-4.284e-5	-6.848e-5
-1.613	-4.239e-5	-6.933e-5
-1.608	-4.194e-5	-7.017e-5
-1.603	-4.148e-5	-7.100e-5
-1.598	-4.104e-5	-7.182e-5
-1.593	-4.060e-5	-7.263e-5
-1.588	-4.017e-5	-7.343e-5
-1.583	-3.976e-5	-7.423e-5
-1.578	-3.935e-5	-7.502e-5
-1.573	-3.894e-5	-7.579e-5
-1.568	-3.854e-5	-7.657e-5
-1.563	-3.815e-5	-7.733e-5
-1.558	-3.777e-5	-7.808e-5
-1.553	-3.740e-5	-7.883e-5
-1.548	-3.703e-5	-7.957e-5
-1.543	-3.668e-5	-8.031e-5
-1.538	-3.633e-5	-8.103e-5
-1.533	-3.599e-5	-8.175e-5
-1.528	-3.564e-5	-8.247e-5
-1.523	-3.531e-5	-8.317e-5
-1.518	-3.498e-5	-8.387e-5
-1.513	-3.466e-5	-8.456e-5
-1.508	-3.435e-5	-8.525e-5
-1.503	-3.403e-5	-8.593e-5
-1.498	-3.370e-5	-8.661e-5
-1.493	-3.337e-5	-8.727e-5
-1.488	-3.304e-5	-8.793e-5
-1.483	-3.270e-5	-8.859e-5
-1.478	-3.236e-5	-8.923e-5
-1.473	-3.201e-5	-8.988e-5
-1.468	-3.164e-5	-9.051e-5
-1.463	-3.127e-5	-9.113e-5
-1.458	-3.088e-5	-9.175e-5
-1.453	-3.047e-5	-9.236e-5
-1.448	-3.004e-5	-9.296e-5
-1.443	-2.960e-5	-9.355e-5
-1.438	-2.914e-5	-9.414e-5
-1.433	-2.867e-5	-9.471e-5
-1.428	-2.818e-5	-9.527e-5
-1.423	-2.768e-5	-9.583e-5
-1.418	-2.717e-5	-9.637e-5
-1.413	-2.665e-5	-9.690e-5
-1.408	-2.610e-5	-9.743e-5
-1.403	-2.553e-5	-9.794e-5
-1.398	-2.494e-5	-9.843e-5
-1.393	-2.434e-5	-9.892e-5
-1.388	-2.374e-5	-9.940e-5
-1.383	-2.312e-5	-9.986e-5
-1.378	-2.248e-5	-1.003e-4
-1.373	-2.185e-5	-1.007e-4
-1.368	-2.119e-5	-1.012e-4
-1.363	-2.052e-5	-1.016e-4
-1.358	-1.984e-5	-1.020e-4
-1.353	-1.914e-5	-1.024e-4
-1.348	-1.839e-5	-1.027e-4
-1.343	-1.764e-5	-1.031e-4
-1.338	-1.687e-5	-1.034e-4
-1.333	-1.608e-5	-1.037e-4
-1.328	-1.529e-5	-1.040e-4
-1.323	-1.450e-5	-1.043e-4
-1.318	-1.369e-5	-1.046e-4
-1.313	-1.288e-5	-1.049e-4
-1.308	-1.206e-5	-1.051e-4
-1.303	-1.121e-5	-1.053e-4
-1.298	-1.036e-5	-1.055e-4
-1.293	-9.486e-6	-1.057e-4
-1.288	-8.610e-6	-1.059e-4
-1.283	-7.742e-6	-1.061e-4
-1.278	-6.896e-6	-1.062e-4
-1.273	-6.051e-6	-1.063e-4
-1.268	-5.206e-6	-1.064e-4
-1.263	-4.374e-6	-1.065e-4
-1.258	-3.556e-6	-1.066e-4
-1.253	-2.758e-6	-1.066e-4
-1.248	-1.997e-6	-1.067e-4
-1.243	-1.266e-6	-1.067e-4
-1.238	-5.576e-7	-1.067e-4
-1.233	1.247e-7	-1.067e-4
-1.228	7.870e-7	-1.067e-4
-1.223	1.426e-6	-1.067e-4
-1.218	2.033e-6	-1.066e-4
-1.213	2.604e-6	-1.066e-4
-1.208	3.137e-6	-1.065e-4
-1.203	3.642e-6	-1.064e-4
-1.198	4.115e-6	-1.064e-4
-1.193	4.557e-6	-1.063e-4
-1.188	4.979e-6	-1.062e-4
-1.183	5.384e-6	-1.061e-4
-1.178	5.766e-6	-1.059e-4
-1.173	6.132e-6	-1.058e-4
-1.168	6.470e-6	-1.057e-4
-1.163	6.775e-6	-1.055e-4
-1.158	7.065e-6	-1.054e-4
-1.153	7.344e-6	-1.053e-4
-1.148	7.618e-6	-1.051e-4
-1.143	7.897e-6	-1.050e-4
-1.138	8.180e-6	-1.048e-4
-1.133	8.462e-6	-1.046e-4
-1.128	8.748e-6	-1.044e-4
-1.123	9.035e-6	-1.043e-4
-1.118	9.327e-6	-1.041e-4
-1.113	9.638e-6	-1.039e-4
-1.108	9.984e-6	-1.037e-4
-1.103	1.037e-5	-1.035e-4
-1.098	1.080e-5	-1.033e-4
-1.093	1.126e-5	-1.030e-4
-1.088	1.175e-5	-1.028e-4
-1.083	1.227e-5	-1.026e-4
-1.078	1.287e-5	-1.023e-4
-1.073	1.356e-5	-1.020e-4
-1.068	1.438e-5	-1.017e-4
-1.063	1.531e-5	-1.014e-4
-1.058	1.633e-5	-1.011e-4
-1.053	1.743e-5	-1.008e-4
-1.048	1.863e-5	-1.004e-4
-1.043	1.995e-5	-9.999e-5
-1.038	2.141e-5	-9.956e-5
-1.033	2.305e-5	-9.910e-5
-1.028	2.486e-5	-9.860e-5
-1.023	2.683e-5	-9.806e-5
-1.018	2.897e-5	-9.748e-5
-1.013	3.124e-5	-9.686e-5
-1.008	3.368e-5	-9.619e-5
-1.003	3.629e-5	-9.546e-5
-0.998	3.913e-5	-9.468e-5
-0.993	4.220e-5	-9.383e-5
-0.988	4.556e-5	-9.292e-5
-0.983	4.912e-5	-9.194e-5
-0.978	5.286e-5	-9.088e-5
-0.973	5.673e-5	-8.975e-5
-0.968	6.072e-5	-8.853e-5
-0.963	6.482e-5	-8.724e-5
-0.958	6.907e-5	-8.586e-5
-0.953	7.345e-5	-8.439e-5
-0.948	7.793e-5	-8.283e-5
-0.943	8.246e-5	-8.118e-5
-0.938	8.698e-5	-7.944e-5
-0.933	9.143e-5	-7.761e-5
-0.928	9.580e-5	-7.569e-5
-0.923	1.001e-4	-7.369e-5
-0.918	1.042e-4	-7.161e-5
-0.913	1.082e-4	-6.944e-5
-0.908	1.119e-4	-6.721e-5
-0.903	1.154e-4	-6.490e-5
-0.898	1.186e-4	-6.253e-5
-0.893	1.214e-4	-6.010e-5
-0.888	1.239e-4	-5.762e-5
-0.883	1.261e-4	-5.510e-5
-0.878	1.279e-4	-5.254e-5
-0.873	1.294e-4	-4.995e-5
-0.868	1.305e-4	-4.734e-5
-0.863	1.312e-4	-4.472e-5
-0.858	1.316e-4	-4.209e-5
-0.853	1.316e-4	-3.945e-5
-0.848	1.314e-4	-3.682e-5
-0.843	1.309e-4	-3.421e-5
-0.838	1.302e-4	-3.160e-5
-0.833	1.293e-4	-2.902e-5
-0.828	1.281e-4	-2.645e-5
-0.823	1.269e-4	-2.392e-5
-0.818	1.254e-4	-2.141e-5
-0.813	1.239e-4	-1.893e-5
-0.808	1.223e-4	-1.648e-5
-0.803	1.207e-4	-1.407e-5
-0.798	1.190e-4	-1.169e-5
-0.793	1.172e-4	-9.343e-6
-0.788	1.155e-4	-7.034e-6
-0.783	1.137e-4	-4.759e-6
-0.778	1.120e-4	-2.520e-6
-0.773	1.102e-4	-3.163e-7
-0.768	1.084e-4	1.853e-6
-0.763	1.067e-4	3.987e-6
-0.758	1.051e-4	6.088e-6
-0.753	1.034e-4	8.157e-6
-0.748	1.018e-4	1.019e-5
-0.743	1.003e-4	1.220e-5
-0.738	9.872e-5	1.417e-5
-0.733	9.723e-5	1.612e-5
-0.728	9.578e-5	1.803e-5
-0.723	9.437e-5	1.992e-5
-0.718	9.301e-5	2.178e-5
-0.713	9.170e-5	2.361e-5
-0.708	9.043e-5	2.542e-5
-0.703	8.919e-5	2.721e-5
-0.698	8.798e-5	2.897e-5
-0.693	8.682e-5	3.070e-5
-0.688	8.569e-5	3.242e-5
-0.683	8.461e-5	3.411e-5
-0.678	8.357e-5	3.578e-5
-0.673	8.256e-5	3.743e-5
-0.668	8.158e-5	3.906e-5
-0.663	8.063e-5	4.067e-5
-0.658	7.969e-5	4.227e-5
-0.653	7.879e-5	4.384e-5
-0.648	7.790e-5	4.540e-5
-0.643	7.704e-5	4.694e-5
-0.638	7.621e-5	4.847e-5
-0.633	7.541e-5	4.998e-5
-0.628	7.462e-5	5.147e-5
-0.623	7.386e-5	5.295e-5
-0.618	7.311e-5	5.441e-5
-0.613	7.238e-5	5.586e-5
-0.608	7.166e-5	5.729e-5
-0.603	7.095e-5	5.871e-5
-0.598	7.026e-5	6.011e-5
-0.593	6.959e-5	6.150e-5
-0.588	6.893e-5	6.288e-5
-0.583	6.828e-5	6.425e-5
-0.578	6.763e-5	6.560e-5
-0.573	6.699e-5	6.694e-5
-0.568	6.636e-5	6.827e-5
-0.563	6.573e-5	6.958e-5
-0.558	6.513e-5	7.089e-5
-0.553	6.455e-5	7.218e-5
-0.548	6.396e-5	7.346e-5
-0.543	6.338e-5	7.472e-5
-0.538	6.280e-5	7.598e-5
-0.533	6.223e-5	7.722e-5
-0.528	6.168e-5	7.846e-5
-0.523	6.115e-5	7.968e-5
-0.518	6.062e-5	8.089e-5
-0.513	6.011e-5	8.210e-5
-0.508	5.959e-5	8.329e-5
-0.503	5.907e-5	8.447e-5
-0.498	5.857e-5	8.564e-5
-0.493	5.807e-5	8.680e-5
-0.488	5.759e-5	8.795e-5
-0.483	5.712e-5	8.910e-5
-0.478	5.667e-5	9.023e-5
-0.473	5.622e-5	9.135e-5
-0.468	5.578e-5	9.247e-5
-0.463	5.534e-5	9.358e-5
-0.458	5.490e-5	9.467e-5
-0.453	5.447e-5	9.576e-5
-0.448	5.406e-5	9.684e-5
-0.443	5.365e-5	9.792e-5
-0.438	5.326e-5	9.898e-5
-0.433	5.288e-5	1.000e-4
-0.428	5.249e-5	1.011e-4
-0.423	5.212e-5	1.021e-4
-0.418	5.175e-5	1.032e-4
-0.413	5.139e-5	1.042e-4
-0.408	5.104e-5	1.052e-4
-0.403	5.070e-5	1.062e-4
-0.398	5.037e-5	1.072e-4
-0.393	5.004e-5	1.082e-4
-0.388	4.971e-5	1.092e-4
-0.383	4.937e-5	1.102e-4
-0.378	4.904e-5	1.112e-4
-0.373	4.872e-5	1.122e-4
-0.368	4.841e-5	1.131e-4
-0.363	4.812e-5	1.141e-4
-0.358	4.783e-5	1.151e-4
-0.353	4.755e-5	1.160e-4
-0.348	4.726e-5	1.170e-4
-0.343	4.698e-5	1.179e-4
-0.338	4.670e-5	1.188e-4
-0.333	4.643e-5	1.198e-4
-0.328	4.616e-5	1.207e-4
-0.323	4.590e-5	1.216e-4
-0.318	4.564e-5	1.225e-4
-0.313	4.538e-5	1.234e-4
-0.308	4.513e-5	1.243e-4
-0.303	4.487e-5	1.252e-4
-0.298	4.461e-5	1.261e-4
-0.293	4.437e-5	1.270e-4
-0.288	4.414e-5	1.279e-4
-0.283	4.393e-5	1.288e-4
-0.278	4.371e-5	1.296e-4
-0.273	4.350e-5	1.305e-4
-0.268	4.327e-5	1.314e-4
-0.263	4.305e-5	1.322e-4
-0.258	4.282e-5	1.331e-4
-0.253	4.259e-5	1.339e-4
-0.248	4.238e-5	1.348e-4
-0.243	4.217e-5	1.356e-4
-0.238	4.196e-5	1.365e-4
-0.233	4.176e-5	1.373e-4
-0.228	4.157e-5	1.381e-4
-0.223	4.137e-5	1.390e-4
-0.218	4.118e-5	1.398e-4
-0.213	4.099e-5	1.406e-4
-0.208	4.081e-5	1.414e-4
-0.203	4.063e-5	1.422e-4
