Oct. 15, 2019   15:38:00
Cyclic Voltammetry
File: cv_bcpz_re2_013
Data Source:  Experiment
Instrument Model:  CHI760E
Data Proc:  Smoothing
Header: 
Note: 

Init E (V) = -0.2
High E (V) = -0.2
Low E (V) = -1.8
Init P/N = N
Scan Rate (V/s) = 0.25
Segment = 6
Sample Interval (V) = 0.005
Quiet Time (sec) = 2
Sensitivity (A/V) = 1e-4

Segment 1:
Ep = -1.397V
ip = -1.682e-4A
Ah = -1.001e-4C

Segment 2:
Ep = -0.538V
ip = 7.049e-5A
Ah = 5.380e-5C

Segment 3:
Ep = -1.402V
ip = -1.354e-4A
Ah = -7.877e-5C

Segment 4:
Ep = -0.528V
ip = 8.737e-5A
Ah = 6.761e-5C

Segment 5:
Ep = -1.397V
ip = -1.442e-4A
Ah = -8.614e-5C

Segment 6:
Ep = -0.528V
ip = 7.892e-5A
Ah = 6.074e-5C

Potential/V	Current/A

-0.202	1.244e-5	2.487e-7
-0.207	1.219e-5	4.926e-7
-0.212	1.198e-5	7.321e-7
-0.217	1.178e-5	9.676e-7
-0.222	1.160e-5	1.200e-6
-0.227	1.145e-5	1.429e-6
-0.232	1.131e-5	1.655e-6
-0.237	1.116e-5	1.878e-6
-0.242	1.101e-5	2.098e-6
-0.247	1.088e-5	2.316e-6
-0.252	1.074e-5	2.531e-6
-0.257	1.062e-5	2.743e-6
-0.262	1.051e-5	2.953e-6
-0.267	1.041e-5	3.161e-6
-0.272	1.032e-5	3.368e-6
-0.277	1.024e-5	3.573e-6
-0.282	1.015e-5	3.776e-6
-0.287	1.003e-5	3.976e-6
-0.292	9.920e-6	4.175e-6
-0.297	9.818e-6	4.371e-6
-0.302	9.732e-6	4.566e-6
-0.307	9.656e-6	4.759e-6
-0.312	9.565e-6	4.950e-6
-0.317	9.467e-6	5.139e-6
-0.322	9.375e-6	5.327e-6
-0.327	9.285e-6	5.513e-6
-0.332	9.211e-6	5.697e-6
-0.337	9.144e-6	5.880e-6
-0.342	9.071e-6	6.061e-6
-0.347	9.001e-6	6.241e-6
-0.352	8.928e-6	6.420e-6
-0.357	8.846e-6	6.597e-6
-0.362	8.768e-6	6.772e-6
-0.367	8.687e-6	6.946e-6
-0.372	8.605e-6	7.118e-6
-0.377	8.532e-6	7.289e-6
-0.382	8.470e-6	7.458e-6
-0.387	8.407e-6	7.626e-6
-0.392	8.340e-6	7.793e-6
-0.397	8.262e-6	7.958e-6
-0.402	8.175e-6	8.122e-6
-0.407	8.091e-6	8.283e-6
-0.412	8.025e-6	8.444e-6
-0.417	7.967e-6	8.603e-6
-0.422	7.917e-6	8.762e-6
-0.427	7.867e-6	8.919e-6
-0.432	7.797e-6	9.075e-6
-0.437	7.716e-6	9.229e-6
-0.442	7.628e-6	9.382e-6
-0.447	7.537e-6	9.533e-6
-0.452	7.463e-6	9.682e-6
-0.457	7.397e-6	9.830e-6
-0.462	7.328e-6	9.976e-6
-0.467	7.262e-6	1.012e-5
-0.472	7.190e-6	1.027e-5
-0.477	7.112e-6	1.041e-5
-0.482	7.037e-6	1.055e-5
-0.487	6.956e-6	1.069e-5
-0.492	6.873e-6	1.082e-5
-0.497	6.799e-6	1.096e-5
-0.502	6.733e-6	1.110e-5
-0.507	6.669e-6	1.123e-5
-0.512	6.603e-6	1.136e-5
-0.517	6.526e-6	1.149e-5
-0.522	6.439e-6	1.162e-5
-0.527	6.355e-6	1.175e-5
-0.532	6.271e-6	1.187e-5
-0.537	6.184e-6	1.200e-5
-0.542	6.096e-6	1.212e-5
-0.547	6.008e-6	1.224e-5
-0.552	5.916e-6	1.236e-5
-0.557	5.838e-6	1.247e-5
-0.562	5.765e-6	1.259e-5
-0.567	5.686e-6	1.270e-5
-0.572	5.604e-6	1.281e-5
-0.577	5.523e-6	1.293e-5
-0.582	5.432e-6	1.303e-5
-0.587	5.343e-6	1.314e-5
-0.592	5.254e-6	1.325e-5
-0.597	5.158e-6	1.335e-5
-0.602	5.065e-6	1.345e-5
-0.607	4.980e-6	1.355e-5
-0.612	4.890e-6	1.365e-5
-0.617	4.792e-6	1.374e-5
-0.622	4.685e-6	1.384e-5
-0.627	4.566e-6	1.393e-5
-0.632	4.450e-6	1.402e-5
-0.637	4.344e-6	1.410e-5
-0.642	4.243e-6	1.419e-5
-0.647	4.148e-6	1.427e-5
-0.652	4.060e-6	1.435e-5
-0.657	3.961e-6	1.443e-5
-0.662	3.862e-6	1.451e-5
-0.667	3.758e-6	1.458e-5
-0.672	3.644e-6	1.466e-5
-0.677	3.533e-6	1.473e-5
-0.682	3.427e-6	1.480e-5
-0.687	3.312e-6	1.486e-5
-0.692	3.207e-6	1.493e-5
-0.697	3.099e-6	1.499e-5
-0.702	2.988e-6	1.505e-5
-0.707	2.878e-6	1.511e-5
-0.712	2.771e-6	1.516e-5
-0.717	2.654e-6	1.522e-5
-0.722	2.545e-6	1.527e-5
-0.727	2.430e-6	1.531e-5
-0.732	2.311e-6	1.536e-5
-0.737	2.200e-6	1.541e-5
-0.742	2.097e-6	1.545e-5
-0.747	1.991e-6	1.549e-5
-0.752	1.892e-6	1.552e-5
-0.757	1.791e-6	1.556e-5
-0.762	1.686e-6	1.559e-5
-0.767	1.586e-6	1.563e-5
-0.772	1.487e-6	1.566e-5
-0.777	1.380e-6	1.568e-5
-0.782	1.270e-6	1.571e-5
-0.787	1.159e-6	1.573e-5
-0.792	1.047e-6	1.575e-5
-0.797	9.387e-7	1.577e-5
-0.802	8.344e-7	1.579e-5
-0.807	7.296e-7	1.580e-5
-0.812	6.305e-7	1.582e-5
-0.817	5.351e-7	1.583e-5
-0.822	4.339e-7	1.583e-5
-0.827	3.253e-7	1.584e-5
-0.832	2.107e-7	1.585e-5
-0.837	9.115e-8	1.585e-5
-0.842	-9.595e-9	1.585e-5
-0.847	-9.279e-8	1.585e-5
-0.852	-1.758e-7	1.584e-5
-0.857	-2.588e-7	1.584e-5
-0.862	-3.499e-7	1.583e-5
-0.867	-4.513e-7	1.582e-5
-0.872	-5.428e-7	1.581e-5
-0.877	-6.297e-7	1.580e-5
-0.882	-7.223e-7	1.578e-5
-0.887	-8.101e-7	1.577e-5
-0.892	-9.005e-7	1.575e-5
-0.897	-9.947e-7	1.573e-5
-0.902	-1.079e-6	1.571e-5
-0.907	-1.162e-6	1.568e-5
-0.912	-1.249e-6	1.566e-5
-0.917	-1.333e-6	1.563e-5
-0.922	-1.419e-6	1.560e-5
-0.927	-1.514e-6	1.557e-5
-0.932	-1.610e-6	1.554e-5
-0.937	-1.714e-6	1.551e-5
-0.942	-1.834e-6	1.547e-5
-0.947	-1.953e-6	1.543e-5
-0.952	-2.066e-6	1.539e-5
-0.957	-2.179e-6	1.535e-5
-0.962	-2.284e-6	1.530e-5
-0.967	-2.391e-6	1.525e-5
-0.972	-2.516e-6	1.520e-5
-0.977	-2.648e-6	1.515e-5
-0.982	-2.789e-6	1.509e-5
-0.987	-2.942e-6	1.503e-5
-0.992	-3.091e-6	1.497e-5
-0.997	-3.235e-6	1.491e-5
-1.002	-3.380e-6	1.484e-5
-1.007	-3.521e-6	1.477e-5
-1.012	-3.682e-6	1.470e-5
-1.017	-3.872e-6	1.462e-5
-1.022	-4.078e-6	1.454e-5
-1.027	-4.298e-6	1.445e-5
-1.032	-4.523e-6	1.436e-5
-1.037	-4.751e-6	1.427e-5
-1.042	-5.002e-6	1.417e-5
-1.047	-5.270e-6	1.406e-5
-1.052	-5.555e-6	1.395e-5
-1.057	-5.870e-6	1.383e-5
-1.062	-6.215e-6	1.371e-5
-1.067	-6.600e-6	1.358e-5
-1.072	-7.022e-6	1.344e-5
-1.077	-7.469e-6	1.329e-5
-1.082	-7.940e-6	1.313e-5
-1.087	-8.457e-6	1.296e-5
-1.092	-9.031e-6	1.278e-5
-1.097	-9.673e-6	1.258e-5
-1.102	-1.039e-5	1.238e-5
-1.107	-1.117e-5	1.215e-5
-1.112	-1.200e-5	1.191e-5
-1.117	-1.292e-5	1.165e-5
-1.122	-1.390e-5	1.138e-5
-1.127	-1.495e-5	1.108e-5
-1.132	-1.611e-5	1.076e-5
-1.137	-1.736e-5	1.041e-5
-1.142	-1.874e-5	1.003e-5
-1.147	-2.025e-5	9.628e-6
-1.152	-2.187e-5	9.191e-6
-1.157	-2.361e-5	8.719e-6
-1.162	-2.547e-5	8.209e-6
-1.167	-2.746e-5	7.660e-6
-1.172	-2.958e-5	7.069e-6
-1.177	-3.186e-5	6.431e-6
-1.182	-3.429e-5	5.745e-6
-1.187	-3.691e-5	5.007e-6
-1.192	-3.968e-5	4.214e-6
-1.197	-4.259e-5	3.362e-6
-1.202	-4.566e-5	2.449e-6
-1.207	-4.889e-5	1.471e-6
-1.212	-5.228e-5	4.252e-7
-1.217	-5.583e-5	-6.915e-7
-1.222	-5.956e-5	-1.883e-6
-1.227	-6.343e-5	-3.151e-6
-1.232	-6.746e-5	-4.500e-6
-1.237	-7.163e-5	-5.933e-6
-1.242	-7.591e-5	-7.451e-6
-1.247	-8.031e-5	-9.057e-6
-1.252	-8.483e-5	-1.075e-5
-1.257	-8.943e-5	-1.254e-5
-1.262	-9.409e-5	-1.442e-5
-1.267	-9.881e-5	-1.640e-5
-1.272	-1.035e-4	-1.847e-5
-1.277	-1.083e-4	-2.064e-5
-1.282	-1.131e-4	-2.290e-5
-1.287	-1.178e-4	-2.526e-5
-1.292	-1.225e-4	-2.771e-5
-1.297	-1.272e-4	-3.025e-5
-1.302	-1.317e-4	-3.289e-5
-1.307	-1.362e-4	-3.561e-5
-1.312	-1.405e-4	-3.842e-5
-1.317	-1.446e-4	-4.131e-5
-1.322	-1.486e-4	-4.428e-5
-1.327	-1.524e-4	-4.733e-5
-1.332	-1.560e-4	-5.045e-5
-1.337	-1.592e-4	-5.364e-5
-1.342	-1.623e-4	-5.688e-5
-1.347	-1.651e-4	-6.018e-5
-1.352	-1.676e-4	-6.354e-5
-1.357	-1.698e-4	-6.693e-5
-1.362	-1.718e-4	-7.037e-5
-1.367	-1.734e-4	-7.383e-5
-1.372	-1.748e-4	-7.733e-5
-1.377	-1.759e-4	-8.085e-5
-1.382	-1.767e-4	-8.438e-5
-1.387	-1.773e-4	-8.793e-5
-1.392	-1.777e-4	-9.148e-5
-1.397	-1.778e-4	-9.504e-5
-1.402	-1.776e-4	-9.859e-5
-1.407	-1.773e-4	-1.021e-4
-1.412	-1.768e-4	-1.057e-4
-1.417	-1.762e-4	-1.092e-4
-1.422	-1.754e-4	-1.127e-4
-1.427	-1.744e-4	-1.162e-4
-1.432	-1.734e-4	-1.197e-4
-1.437	-1.722e-4	-1.231e-4
-1.442	-1.709e-4	-1.265e-4
-1.447	-1.696e-4	-1.299e-4
-1.452	-1.683e-4	-1.333e-4
-1.457	-1.669e-4	-1.366e-4
-1.462	-1.656e-4	-1.399e-4
-1.467	-1.642e-4	-1.432e-4
-1.472	-1.628e-4	-1.465e-4
-1.477	-1.614e-4	-1.497e-4
-1.482	-1.600e-4	-1.529e-4
-1.487	-1.586e-4	-1.561e-4
-1.492	-1.572e-4	-1.592e-4
-1.497	-1.559e-4	-1.623e-4
-1.502	-1.545e-4	-1.654e-4
-1.507	-1.532e-4	-1.685e-4
-1.512	-1.520e-4	-1.715e-4
-1.517	-1.507e-4	-1.745e-4
-1.522	-1.496e-4	-1.775e-4
-1.527	-1.484e-4	-1.805e-4
-1.532	-1.473e-4	-1.834e-4
-1.537	-1.463e-4	-1.864e-4
-1.542	-1.453e-4	-1.893e-4
-1.547	-1.443e-4	-1.922e-4
-1.552	-1.433e-4	-1.950e-4
-1.557	-1.424e-4	-1.979e-4
-1.562	-1.415e-4	-2.007e-4
-1.567	-1.407e-4	-2.035e-4
-1.572	-1.399e-4	-2.063e-4
-1.577	-1.392e-4	-2.091e-4
-1.582	-1.385e-4	-2.119e-4
-1.587	-1.378e-4	-2.146e-4
-1.592	-1.372e-4	-2.174e-4
-1.597	-1.366e-4	-2.201e-4
-1.602	-1.361e-4	-2.228e-4
-1.607	-1.355e-4	-2.255e-4
-1.612	-1.351e-4	-2.282e-4
-1.617	-1.347e-4	-2.309e-4
-1.622	-1.343e-4	-2.336e-4
-1.627	-1.339e-4	-2.363e-4
-1.632	-1.336e-4	-2.390e-4
-1.637	-1.333e-4	-2.416e-4
-1.642	-1.330e-4	-2.443e-4
-1.647	-1.328e-4	-2.469e-4
-1.652	-1.326e-4	-2.496e-4
-1.657	-1.325e-4	-2.523e-4
-1.662	-1.323e-4	-2.549e-4
-1.667	-1.322e-4	-2.575e-4
-1.672	-1.322e-4	-2.602e-4
-1.677	-1.322e-4	-2.628e-4
-1.682	-1.322e-4	-2.655e-4
-1.687	-1.323e-4	-2.681e-4
-1.692	-1.324e-4	-2.708e-4
-1.697	-1.325e-4	-2.734e-4
-1.702	-1.327e-4	-2.761e-4
-1.707	-1.330e-4	-2.787e-4
-1.712	-1.332e-4	-2.814e-4
-1.717	-1.336e-4	-2.841e-4
-1.722	-1.340e-4	-2.867e-4
-1.727	-1.344e-4	-2.894e-4
-1.732	-1.348e-4	-2.921e-4
-1.737	-1.353e-4	-2.948e-4
-1.742	-1.359e-4	-2.976e-4
-1.747	-1.365e-4	-3.003e-4
-1.752	-1.372e-4	-3.030e-4
-1.757	-1.380e-4	-3.058e-4
-1.762	-1.388e-4	-3.086e-4
-1.767	-1.396e-4	-3.114e-4
-1.772	-1.406e-4	-3.142e-4
-1.777	-1.416e-4	-3.170e-4
-1.782	-1.427e-4	-3.199e-4
-1.787	-1.439e-4	-3.227e-4
-1.792	-1.451e-4	-3.256e-4
-1.797	-1.463e-4	-3.286e-4
-1.798	-1.392e-4	-2.784e-6
-1.793	-1.332e-4	-5.449e-6
-1.788	-1.280e-4	-8.008e-6
-1.783	-1.234e-4	-1.048e-5
-1.778	-1.196e-4	-1.287e-5
-1.773	-1.164e-4	-1.520e-5
-1.768	-1.136e-4	-1.747e-5
-1.763	-1.110e-4	-1.969e-5
-1.758	-1.087e-4	-2.186e-5
-1.753	-1.064e-4	-2.399e-5
-1.748	-1.044e-4	-2.608e-5
-1.743	-1.024e-4	-2.813e-5
-1.738	-1.005e-4	-3.014e-5
-1.733	-9.880e-5	-3.211e-5
-1.728	-9.717e-5	-3.406e-5
-1.723	-9.562e-5	-3.597e-5
-1.718	-9.415e-5	-3.785e-5
-1.713	-9.271e-5	-3.971e-5
-1.708	-9.130e-5	-4.153e-5
-1.703	-8.996e-5	-4.333e-5
-1.698	-8.868e-5	-4.511e-5
-1.693	-8.746e-5	-4.686e-5
-1.688	-8.631e-5	-4.858e-5
-1.683	-8.519e-5	-5.029e-5
-1.678	-8.408e-5	-5.197e-5
-1.673	-8.301e-5	-5.363e-5
-1.668	-8.196e-5	-5.527e-5
-1.663	-8.092e-5	-5.688e-5
-1.658	-7.993e-5	-5.848e-5
-1.653	-7.896e-5	-6.006e-5
-1.648	-7.801e-5	-6.162e-5
-1.643	-7.710e-5	-6.316e-5
-1.638	-7.621e-5	-6.469e-5
-1.633	-7.534e-5	-6.620e-5
-1.628	-7.449e-5	-6.769e-5
-1.623	-7.364e-5	-6.916e-5
-1.618	-7.280e-5	-7.061e-5
-1.613	-7.200e-5	-7.205e-5
-1.608	-7.122e-5	-7.348e-5
-1.603	-7.045e-5	-7.489e-5
-1.598	-6.972e-5	-7.628e-5
-1.593	-6.898e-5	-7.766e-5
-1.588	-6.825e-5	-7.903e-5
-1.583	-6.752e-5	-8.038e-5
-1.578	-6.680e-5	-8.171e-5
-1.573	-6.609e-5	-8.303e-5
-1.568	-6.541e-5	-8.434e-5
-1.563	-6.474e-5	-8.564e-5
-1.558	-6.407e-5	-8.692e-5
-1.553	-6.341e-5	-8.819e-5
-1.548	-6.275e-5	-8.944e-5
-1.543	-6.210e-5	-9.068e-5
-1.538	-6.147e-5	-9.191e-5
-1.533	-6.084e-5	-9.313e-5
-1.528	-6.020e-5	-9.433e-5
-1.523	-5.958e-5	-9.553e-5
-1.518	-5.896e-5	-9.671e-5
-1.513	-5.832e-5	-9.787e-5
-1.508	-5.769e-5	-9.903e-5
-1.503	-5.706e-5	-1.002e-4
-1.498	-5.642e-5	-1.013e-4
-1.493	-5.579e-5	-1.024e-4
-1.488	-5.514e-5	-1.035e-4
-1.483	-5.448e-5	-1.046e-4
-1.478	-5.382e-5	-1.057e-4
-1.473	-5.315e-5	-1.067e-4
-1.468	-5.247e-5	-1.078e-4
-1.463	-5.180e-5	-1.088e-4
-1.458	-5.112e-5	-1.099e-4
-1.453	-5.043e-5	-1.109e-4
-1.448	-4.974e-5	-1.119e-4
-1.443	-4.901e-5	-1.128e-4
-1.438	-4.826e-5	-1.138e-4
-1.433	-4.750e-5	-1.147e-4
-1.428	-4.672e-5	-1.157e-4
-1.423	-4.594e-5	-1.166e-4
-1.418	-4.516e-5	-1.175e-4
-1.413	-4.436e-5	-1.184e-4
-1.408	-4.353e-5	-1.193e-4
-1.403	-4.269e-5	-1.201e-4
-1.398	-4.181e-5	-1.210e-4
-1.393	-4.092e-5	-1.218e-4
-1.388	-4.003e-5	-1.226e-4
-1.383	-3.912e-5	-1.234e-4
-1.378	-3.819e-5	-1.241e-4
-1.373	-3.725e-5	-1.249e-4
-1.368	-3.629e-5	-1.256e-4
-1.363	-3.530e-5	-1.263e-4
-1.358	-3.432e-5	-1.270e-4
-1.353	-3.329e-5	-1.276e-4
-1.348	-3.226e-5	-1.283e-4
-1.343	-3.124e-5	-1.289e-4
-1.338	-3.020e-5	-1.295e-4
-1.333	-2.917e-5	-1.301e-4
-1.328	-2.814e-5	-1.307e-4
-1.323	-2.708e-5	-1.312e-4
-1.318	-2.602e-5	-1.317e-4
-1.313	-2.496e-5	-1.322e-4
-1.308	-2.390e-5	-1.327e-4
-1.303	-2.286e-5	-1.332e-4
-1.298	-2.183e-5	-1.336e-4
-1.293	-2.080e-5	-1.340e-4
-1.288	-1.978e-5	-1.344e-4
-1.283	-1.876e-5	-1.348e-4
-1.278	-1.776e-5	-1.351e-4
-1.273	-1.678e-5	-1.355e-4
-1.268	-1.581e-5	-1.358e-4
-1.263	-1.485e-5	-1.361e-4
-1.258	-1.392e-5	-1.364e-4
-1.253	-1.303e-5	-1.366e-4
-1.248	-1.216e-5	-1.369e-4
-1.243	-1.132e-5	-1.371e-4
-1.238	-1.051e-5	-1.373e-4
-1.233	-9.706e-6	-1.375e-4
-1.228	-8.930e-6	-1.377e-4
-1.223	-8.184e-6	-1.378e-4
-1.218	-7.459e-6	-1.380e-4
-1.213	-6.773e-6	-1.381e-4
-1.208	-6.134e-6	-1.383e-4
-1.203	-5.516e-6	-1.384e-4
-1.198	-4.922e-6	-1.385e-4
-1.193	-4.356e-6	-1.386e-4
-1.188	-3.807e-6	-1.386e-4
-1.183	-3.292e-6	-1.387e-4
-1.178	-2.819e-6	-1.387e-4
-1.173	-2.365e-6	-1.388e-4
-1.168	-1.932e-6	-1.388e-4
-1.163	-1.530e-6	-1.389e-4
-1.158	-1.154e-6	-1.389e-4
-1.153	-8.099e-7	-1.389e-4
-1.148	-4.997e-7	-1.389e-4
-1.143	-2.039e-7	-1.389e-4
-1.138	7.912e-8	-1.389e-4
-1.133	3.454e-7	-1.389e-4
-1.128	6.029e-7	-1.389e-4
-1.123	8.510e-7	-1.389e-4
-1.118	1.084e-6	-1.389e-4
-1.113	1.304e-6	-1.388e-4
-1.108	1.504e-6	-1.388e-4
-1.103	1.676e-6	-1.388e-4
-1.098	1.838e-6	-1.387e-4
-1.093	1.996e-6	-1.387e-4
-1.088	2.152e-6	-1.386e-4
-1.083	2.313e-6	-1.386e-4
-1.078	2.477e-6	-1.386e-4
-1.073	2.625e-6	-1.385e-4
-1.068	2.760e-6	-1.384e-4
-1.063	2.883e-6	-1.384e-4
-1.058	2.989e-6	-1.383e-4
-1.053	3.099e-6	-1.383e-4
-1.048	3.221e-6	-1.382e-4
-1.043	3.344e-6	-1.381e-4
-1.038	3.469e-6	-1.381e-4
-1.033	3.592e-6	-1.380e-4
-1.028	3.697e-6	-1.379e-4
-1.023	3.798e-6	-1.378e-4
-1.018	3.898e-6	-1.378e-4
-1.013	3.995e-6	-1.377e-4
-1.008	4.105e-6	-1.376e-4
-1.003	4.230e-6	-1.375e-4
-0.998	4.356e-6	-1.374e-4
-0.993	4.486e-6	-1.373e-4
-0.988	4.615e-6	-1.373e-4
-0.983	4.740e-6	-1.372e-4
-0.978	4.874e-6	-1.371e-4
-0.973	5.022e-6	-1.370e-4
-0.968	5.179e-6	-1.369e-4
-0.963	5.351e-6	-1.367e-4
-0.958	5.530e-6	-1.366e-4
-0.953	5.715e-6	-1.365e-4
-0.948	5.911e-6	-1.364e-4
-0.943	6.124e-6	-1.363e-4
-0.938	6.355e-6	-1.362e-4
-0.933	6.612e-6	-1.360e-4
-0.928	6.892e-6	-1.359e-4
-0.923	7.190e-6	-1.357e-4
-0.918	7.506e-6	-1.356e-4
-0.913	7.842e-6	-1.354e-4
-0.908	8.197e-6	-1.353e-4
-0.903	8.579e-6	-1.351e-4
-0.898	8.995e-6	-1.349e-4
-0.893	9.443e-6	-1.347e-4
-0.888	9.921e-6	-1.345e-4
-0.883	1.043e-5	-1.343e-4
-0.878	1.096e-5	-1.341e-4
-0.873	1.151e-5	-1.339e-4
-0.868	1.210e-5	-1.336e-4
-0.863	1.271e-5	-1.334e-4
-0.858	1.336e-5	-1.331e-4
-0.853	1.405e-5	-1.328e-4
-0.848	1.477e-5	-1.325e-4
-0.843	1.553e-5	-1.322e-4
-0.838	1.632e-5	-1.319e-4
-0.833	1.714e-5	-1.316e-4
-0.828	1.799e-5	-1.312e-4
-0.823	1.888e-5	-1.308e-4
-0.818	1.981e-5	-1.304e-4
-0.813	2.079e-5	-1.300e-4
-0.808	2.179e-5	-1.296e-4
-0.803	2.283e-5	-1.291e-4
-0.798	2.389e-5	-1.286e-4
-0.793	2.499e-5	-1.281e-4
-0.788	2.612e-5	-1.276e-4
-0.783	2.729e-5	-1.271e-4
-0.778	2.851e-5	-1.265e-4
-0.773	2.975e-5	-1.259e-4
-0.768	3.104e-5	-1.253e-4
-0.763	3.235e-5	-1.246e-4
-0.758	3.369e-5	-1.240e-4
-0.753	3.506e-5	-1.233e-4
-0.748	3.646e-5	-1.225e-4
-0.743	3.789e-5	-1.218e-4
-0.738	3.936e-5	-1.210e-4
-0.733	4.085e-5	-1.202e-4
-0.728	4.237e-5	-1.193e-4
-0.723	4.392e-5	-1.184e-4
-0.718	4.547e-5	-1.175e-4
-0.713	4.704e-5	-1.166e-4
-0.708	4.862e-5	-1.156e-4
-0.703	5.020e-5	-1.146e-4
-0.698	5.179e-5	-1.136e-4
-0.693	5.340e-5	-1.125e-4
-0.688	5.500e-5	-1.114e-4
-0.683	5.659e-5	-1.103e-4
-0.678	5.817e-5	-1.091e-4
-0.673	5.972e-5	-1.079e-4
-0.668	6.125e-5	-1.067e-4
-0.663	6.280e-5	-1.054e-4
-0.658	6.432e-5	-1.042e-4
-0.653	6.582e-5	-1.028e-4
-0.648	6.729e-5	-1.015e-4
-0.643	6.871e-5	-1.001e-4
-0.638	7.007e-5	-9.872e-5
-0.633	7.138e-5	-9.729e-5
-0.628	7.264e-5	-9.584e-5
-0.623	7.386e-5	-9.436e-5
-0.618	7.503e-5	-9.286e-5
-0.613	7.615e-5	-9.133e-5
-0.608	7.720e-5	-8.979e-5
-0.603	7.818e-5	-8.823e-5
-0.598	7.907e-5	-8.665e-5
-0.593	7.989e-5	-8.505e-5
-0.588	8.065e-5	-8.343e-5
-0.583	8.133e-5	-8.181e-5
-0.578	8.197e-5	-8.017e-5
-0.573	8.254e-5	-7.852e-5
-0.568	8.302e-5	-7.686e-5
-0.563	8.342e-5	-7.519e-5
-0.558	8.376e-5	-7.351e-5
-0.553	8.401e-5	-7.183e-5
-0.548	8.420e-5	-7.015e-5
-0.543	8.433e-5	-6.846e-5
-0.538	8.439e-5	-6.678e-5
-0.533	8.439e-5	-6.509e-5
-0.528	8.434e-5	-6.340e-5
-0.523	8.422e-5	-6.172e-5
-0.518	8.404e-5	-6.004e-5
-0.513	8.381e-5	-5.836e-5
-0.508	8.353e-5	-5.669e-5
-0.503	8.319e-5	-5.503e-5
-0.498	8.282e-5	-5.337e-5
-0.493	8.241e-5	-5.172e-5
-0.488	8.196e-5	-5.008e-5
-0.483	8.148e-5	-4.845e-5
-0.478	8.098e-5	-4.683e-5
-0.473	8.044e-5	-4.522e-5
-0.468	7.987e-5	-4.363e-5
-0.463	7.929e-5	-4.204e-5
-0.458	7.870e-5	-4.047e-5
-0.453	7.809e-5	-3.890e-5
-0.448	7.748e-5	-3.735e-5
-0.443	7.685e-5	-3.582e-5
-0.438	7.622e-5	-3.429e-5
-0.433	7.557e-5	-3.278e-5
-0.428	7.492e-5	-3.128e-5
-0.423	7.426e-5	-2.980e-5
-0.418	7.361e-5	-2.833e-5
-0.413	7.295e-5	-2.687e-5
-0.408	7.230e-5	-2.542e-5
-0.403	7.165e-5	-2.399e-5
-0.398	7.100e-5	-2.257e-5
-0.393	7.035e-5	-2.116e-5
-0.388	6.972e-5	-1.977e-5
-0.383	6.909e-5	-1.839e-5
-0.378	6.847e-5	-1.702e-5
-0.373	6.785e-5	-1.566e-5
-0.368	6.725e-5	-1.431e-5
-0.363	6.664e-5	-1.298e-5
-0.358	6.605e-5	-1.166e-5
-0.353	6.546e-5	-1.035e-5
-0.348	6.489e-5	-9.053e-6
-0.343	6.434e-5	-7.766e-6
-0.338	6.379e-5	-6.490e-6
-0.333	6.325e-5	-5.225e-6
-0.328	6.272e-5	-3.971e-6
-0.323	6.219e-5	-2.727e-6
-0.318	6.168e-5	-1.493e-6
-0.313	6.118e-5	-2.698e-7
-0.308	6.070e-5	9.441e-7
-0.303	6.022e-5	2.149e-6
-0.298	5.975e-5	3.344e-6
-0.293	5.928e-5	4.529e-6
-0.288	5.882e-5	5.706e-6
-0.283	5.836e-5	6.873e-6
-0.278	5.791e-5	8.031e-6
-0.273	5.748e-5	9.181e-6
-0.268	5.707e-5	1.032e-5
-0.263	5.667e-5	1.146e-5
-0.258	5.628e-5	1.258e-5
-0.253	5.588e-5	1.370e-5
-0.248	5.548e-5	1.481e-5
-0.243	5.508e-5	1.591e-5
-0.238	5.468e-5	1.700e-5
-0.233	5.429e-5	1.809e-5
-0.228	5.393e-5	1.917e-5
-0.223	5.358e-5	2.024e-5
-0.218	5.324e-5	2.130e-5
-0.213	5.290e-5	2.236e-5
-0.208	5.255e-5	2.341e-5
-0.203	5.220e-5	2.446e-5
-0.202	4.950e-5	9.901e-7
-0.207	4.830e-5	1.956e-6
-0.212	4.718e-5	2.900e-6
-0.217	4.615e-5	3.823e-6
-0.222	4.523e-5	4.727e-6
-0.227	4.438e-5	5.615e-6
-0.232	4.358e-5	6.486e-6
-0.237	4.282e-5	7.343e-6
-0.242	4.210e-5	8.185e-6
-0.247	4.143e-5	9.013e-6
-0.252	4.079e-5	9.829e-6
-0.257	4.017e-5	1.063e-5
-0.262	3.957e-5	1.142e-5
-0.267	3.899e-5	1.220e-5
-0.272	3.842e-5	1.297e-5
-0.277	3.788e-5	1.373e-5
-0.282	3.736e-5	1.448e-5
-0.287	3.684e-5	1.521e-5
-0.292	3.634e-5	1.594e-5
-0.297	3.584e-5	1.666e-5
-0.302	3.535e-5	1.736e-5
-0.307	3.487e-5	1.806e-5
-0.312	3.439e-5	1.875e-5
-0.317	3.392e-5	1.943e-5
-0.322	3.346e-5	2.010e-5
-0.327	3.302e-5	2.076e-5
-0.332	3.258e-5	2.141e-5
-0.337	3.215e-5	2.205e-5
-0.342	3.172e-5	2.269e-5
-0.347	3.129e-5	2.331e-5
-0.352	3.088e-5	2.393e-5
-0.357	3.046e-5	2.454e-5
-0.362	3.004e-5	2.514e-5
-0.367	2.962e-5	2.573e-5
-0.372	2.922e-5	2.632e-5
-0.377	2.882e-5	2.689e-5
-0.382	2.843e-5	2.746e-5
-0.387	2.804e-5	2.802e-5
-0.392	2.763e-5	2.857e-5
-0.397	2.721e-5	2.912e-5
-0.402	2.681e-5	2.966e-5
-0.407	2.641e-5	3.018e-5
-0.412	2.602e-5	3.070e-5
-0.417	2.563e-5	3.122e-5
-0.422	2.523e-5	3.172e-5
-0.427	2.484e-5	3.222e-5
-0.432	2.444e-5	3.271e-5
-0.437	2.404e-5	3.319e-5
-0.442	2.365e-5	3.366e-5
-0.447	2.327e-5	3.413e-5
-0.452	2.289e-5	3.458e-5
-0.457	2.250e-5	3.503e-5
-0.462	2.211e-5	3.548e-5
-0.467	2.171e-5	3.591e-5
-0.472	2.132e-5	3.634e-5
-0.477	2.093e-5	3.676e-5
-0.482	2.055e-5	3.717e-5
-0.487	2.015e-5	3.757e-5
-0.492	1.976e-5	3.796e-5
-0.497	1.937e-5	3.835e-5
-0.502	1.898e-5	3.873e-5
-0.507	1.858e-5	3.910e-5
-0.512	1.818e-5	3.947e-5
-0.517	1.778e-5	3.982e-5
-0.522	1.738e-5	4.017e-5
-0.527	1.697e-5	4.051e-5
-0.532	1.657e-5	4.084e-5
-0.537	1.616e-5	4.116e-5
-0.542	1.576e-5	4.148e-5
-0.547	1.535e-5	4.179e-5
-0.552	1.495e-5	4.209e-5
-0.557	1.454e-5	4.238e-5
-0.562	1.414e-5	4.266e-5
-0.567	1.374e-5	4.293e-5
-0.572	1.334e-5	4.320e-5
-0.577	1.294e-5	4.346e-5
-0.582	1.253e-5	4.371e-5
-0.587	1.211e-5	4.395e-5
-0.592	1.170e-5	4.419e-5
-0.597	1.128e-5	4.441e-5
-0.602	1.088e-5	4.463e-5
-0.607	1.048e-5	4.484e-5
-0.612	1.007e-5	4.504e-5
-0.617	9.662e-6	4.523e-5
-0.622	9.248e-6	4.542e-5
-0.627	8.831e-6	4.560e-5
-0.632	8.422e-6	4.576e-5
-0.637	8.025e-6	4.592e-5
-0.642	7.634e-6	4.608e-5
-0.647	7.242e-6	4.622e-5
-0.652	6.847e-6	4.636e-5
-0.657	6.447e-6	4.649e-5
-0.662	6.043e-6	4.661e-5
-0.667	5.647e-6	4.672e-5
-0.672	5.262e-6	4.683e-5
-0.677	4.893e-6	4.692e-5
-0.682	4.539e-6	4.702e-5
-0.687	4.192e-6	4.710e-5
-0.692	3.841e-6	4.718e-5
-0.697	3.489e-6	4.725e-5
-0.702	3.134e-6	4.731e-5
-0.707	2.777e-6	4.736e-5
-0.712	2.430e-6	4.741e-5
-0.717	2.088e-6	4.745e-5
-0.722	1.755e-6	4.749e-5
-0.727	1.430e-6	4.752e-5
-0.732	1.100e-6	4.754e-5
-0.737	7.719e-7	4.756e-5
-0.742	4.523e-7	4.756e-5
-0.747	1.339e-7	4.757e-5
-0.752	-1.698e-7	4.756e-5
-0.757	-4.604e-7	4.755e-5
-0.762	-7.474e-7	4.754e-5
-0.767	-1.024e-6	4.752e-5
-0.772	-1.289e-6	4.749e-5
-0.777	-1.553e-6	4.746e-5
-0.782	-1.813e-6	4.743e-5
-0.787	-2.067e-6	4.738e-5
-0.792	-2.320e-6	4.734e-5
-0.797	-2.564e-6	4.729e-5
-0.802	-2.796e-6	4.723e-5
-0.807	-3.022e-6	4.717e-5
-0.812	-3.243e-6	4.711e-5
-0.817	-3.455e-6	4.704e-5
-0.822	-3.668e-6	4.696e-5
-0.827	-3.872e-6	4.689e-5
-0.832	-4.064e-6	4.680e-5
-0.837	-4.252e-6	4.672e-5
-0.842	-4.434e-6	4.663e-5
-0.847	-4.607e-6	4.654e-5
-0.852	-4.787e-6	4.644e-5
-0.857	-4.957e-6	4.634e-5
-0.862	-5.115e-6	4.624e-5
-0.867	-5.269e-6	4.614e-5
-0.872	-5.408e-6	4.603e-5
-0.877	-5.533e-6	4.592e-5
-0.882	-5.657e-6	4.580e-5
-0.887	-5.768e-6	4.569e-5
-0.892	-5.873e-6	4.557e-5
-0.897	-5.987e-6	4.545e-5
-0.902	-6.096e-6	4.533e-5
-0.907	-6.199e-6	4.521e-5
-0.912	-6.301e-6	4.508e-5
-0.917	-6.392e-6	4.495e-5
-0.922	-6.478e-6	4.482e-5
-0.927	-6.567e-6	4.469e-5
-0.932	-6.649e-6	4.456e-5
-0.937	-6.724e-6	4.442e-5
-0.942	-6.802e-6	4.429e-5
-0.947	-6.877e-6	4.415e-5
-0.952	-6.951e-6	4.401e-5
-0.957	-7.031e-6	4.387e-5
-0.962	-7.101e-6	4.373e-5
-0.967	-7.163e-6	4.358e-5
-0.972	-7.224e-6	4.344e-5
-0.977	-7.285e-6	4.329e-5
-0.982	-7.349e-6	4.315e-5
-0.987	-7.421e-6	4.300e-5
-0.992	-7.488e-6	4.285e-5
-0.997	-7.547e-6	4.270e-5
-1.002	-7.612e-6	4.255e-5
-1.007	-7.690e-6	4.239e-5
-1.012	-7.774e-6	4.224e-5
-1.017	-7.873e-6	4.208e-5
-1.022	-7.972e-6	4.192e-5
-1.027	-8.067e-6	4.176e-5
-1.032	-8.174e-6	4.160e-5
-1.037	-8.294e-6	4.143e-5
-1.042	-8.417e-6	4.126e-5
-1.047	-8.560e-6	4.109e-5
-1.052	-8.708e-6	4.092e-5
-1.057	-8.861e-6	4.074e-5
-1.062	-9.038e-6	4.056e-5
-1.067	-9.240e-6	4.037e-5
-1.072	-9.460e-6	4.018e-5
-1.077	-9.713e-6	3.999e-5
-1.082	-9.990e-6	3.979e-5
-1.087	-1.030e-5	3.958e-5
-1.092	-1.065e-5	3.937e-5
-1.097	-1.104e-5	3.915e-5
-1.102	-1.146e-5	3.892e-5
-1.107	-1.194e-5	3.868e-5
-1.112	-1.246e-5	3.843e-5
-1.117	-1.306e-5	3.817e-5
-1.122	-1.372e-5	3.790e-5
-1.127	-1.444e-5	3.761e-5
-1.132	-1.521e-5	3.730e-5
-1.137	-1.608e-5	3.698e-5
-1.142	-1.703e-5	3.664e-5
-1.147	-1.807e-5	3.628e-5
-1.152	-1.919e-5	3.590e-5
-1.157	-2.041e-5	3.549e-5
-1.162	-2.172e-5	3.505e-5
-1.167	-2.319e-5	3.459e-5
-1.172	-2.480e-5	3.409e-5
-1.177	-2.652e-5	3.356e-5
-1.182	-2.836e-5	3.300e-5
-1.187	-3.032e-5	3.239e-5
-1.192	-3.239e-5	3.174e-5
-1.197	-3.463e-5	3.105e-5
-1.202	-3.702e-5	3.031e-5
-1.207	-3.956e-5	2.952e-5
-1.212	-4.226e-5	2.867e-5
-1.217	-4.509e-5	2.777e-5
-1.222	-4.800e-5	2.681e-5
-1.227	-5.103e-5	2.579e-5
-1.232	-5.416e-5	2.471e-5
-1.237	-5.742e-5	2.356e-5
-1.242	-6.084e-5	2.234e-5
-1.247	-6.443e-5	2.105e-5
-1.252	-6.811e-5	1.969e-5
-1.257	-7.190e-5	1.825e-5
-1.262	-7.577e-5	1.674e-5
-1.267	-7.968e-5	1.514e-5
-1.272	-8.364e-5	1.347e-5
-1.277	-8.764e-5	1.172e-5
-1.282	-9.163e-5	9.886e-6
-1.287	-9.565e-5	7.973e-6
-1.292	-9.965e-5	5.980e-6
-1.297	-1.036e-4	3.909e-6
-1.302	-1.075e-4	1.760e-6
-1.307	-1.112e-4	-4.654e-7
-1.312	-1.149e-4	-2.764e-6
-1.317	-1.185e-4	-5.133e-6
-1.322	-1.219e-4	-7.570e-6
-1.327	-1.251e-4	-1.007e-5
-1.332	-1.282e-4	-1.264e-5
-1.337	-1.311e-4	-1.526e-5
-1.342	-1.337e-4	-1.793e-5
-1.347	-1.361e-4	-2.065e-5
-1.352	-1.383e-4	-2.342e-5
-1.357	-1.403e-4	-2.623e-5
-1.362	-1.421e-4	-2.907e-5
-1.367	-1.437e-4	-3.194e-5
-1.372	-1.450e-4	-3.484e-5
-1.377	-1.461e-4	-3.776e-5
-1.382	-1.469e-4	-4.070e-5
-1.387	-1.475e-4	-4.365e-5
-1.392	-1.479e-4	-4.661e-5
-1.397	-1.481e-4	-4.957e-5
-1.402	-1.482e-4	-5.254e-5
-1.407	-1.481e-4	-5.550e-5
-1.412	-1.479e-4	-5.846e-5
-1.417	-1.475e-4	-6.141e-5
-1.422	-1.469e-4	-6.434e-5
-1.427	-1.463e-4	-6.727e-5
-1.432	-1.455e-4	-7.018e-5
-1.437	-1.447e-4	-7.307e-5
-1.442	-1.438e-4	-7.595e-5
-1.447	-1.428e-4	-7.880e-5
-1.452	-1.419e-4	-8.164e-5
-1.457	-1.408e-4	-8.446e-5
-1.462	-1.398e-4	-8.725e-5
-1.467	-1.387e-4	-9.003e-5
-1.472	-1.376e-4	-9.278e-5
-1.477	-1.365e-4	-9.551e-5
-1.482	-1.355e-4	-9.822e-5
-1.487	-1.344e-4	-1.009e-4
-1.492	-1.334e-4	-1.036e-4
-1.497	-1.323e-4	-1.062e-4
-1.502	-1.313e-4	-1.088e-4
-1.507	-1.303e-4	-1.115e-4
-1.512	-1.293e-4	-1.140e-4
-1.517	-1.283e-4	-1.166e-4
-1.522	-1.274e-4	-1.192e-4
-1.527	-1.266e-4	-1.217e-4
-1.532	-1.257e-4	-1.242e-4
-1.537	-1.249e-4	-1.267e-4
-1.542	-1.241e-4	-1.292e-4
-1.547	-1.234e-4	-1.316e-4
-1.552	-1.227e-4	-1.341e-4
-1.557	-1.220e-4	-1.365e-4
-1.562	-1.214e-4	-1.390e-4
-1.567	-1.208e-4	-1.414e-4
-1.572	-1.202e-4	-1.438e-4
-1.577	-1.197e-4	-1.462e-4
-1.582	-1.192e-4	-1.486e-4
-1.587	-1.187e-4	-1.509e-4
-1.592	-1.183e-4	-1.533e-4
-1.597	-1.179e-4	-1.557e-4
-1.602	-1.175e-4	-1.580e-4
-1.607	-1.172e-4	-1.604e-4
-1.612	-1.169e-4	-1.627e-4
-1.617	-1.166e-4	-1.650e-4
-1.622	-1.164e-4	-1.674e-4
-1.627	-1.161e-4	-1.697e-4
-1.632	-1.159e-4	-1.720e-4
-1.637	-1.158e-4	-1.743e-4
-1.642	-1.157e-4	-1.766e-4
-1.647	-1.156e-4	-1.789e-4
-1.652	-1.155e-4	-1.812e-4
-1.657	-1.155e-4	-1.836e-4
-1.662	-1.155e-4	-1.859e-4
-1.667	-1.155e-4	-1.882e-4
-1.672	-1.155e-4	-1.905e-4
-1.677	-1.157e-4	-1.928e-4
-1.682	-1.158e-4	-1.951e-4
-1.687	-1.160e-4	-1.974e-4
-1.692	-1.162e-4	-1.998e-4
-1.697	-1.164e-4	-2.021e-4
-1.702	-1.166e-4	-2.044e-4
-1.707	-1.169e-4	-2.068e-4
-1.712	-1.173e-4	-2.091e-4
-1.717	-1.177e-4	-2.115e-4
-1.722	-1.181e-4	-2.138e-4
-1.727	-1.186e-4	-2.162e-4
-1.732	-1.191e-4	-2.186e-4
-1.737	-1.197e-4	-2.210e-4
-1.742	-1.203e-4	-2.234e-4
-1.747	-1.209e-4	-2.258e-4
-1.752	-1.217e-4	-2.282e-4
-1.757	-1.225e-4	-2.307e-4
-1.762	-1.234e-4	-2.331e-4
-1.767	-1.243e-4	-2.356e-4
-1.772	-1.252e-4	-2.381e-4
-1.777	-1.263e-4	-2.407e-4
-1.782	-1.274e-4	-2.432e-4
-1.787	-1.286e-4	-2.458e-4
-1.792	-1.299e-4	-2.484e-4
-1.797	-1.313e-4	-2.510e-4
-1.798	-1.230e-4	-2.460e-6
-1.793	-1.183e-4	-4.827e-6
-1.788	-1.141e-4	-7.109e-6
-1.783	-1.105e-4	-9.318e-6
-1.778	-1.074e-4	-1.147e-5
-1.773	-1.048e-4	-1.356e-5
-1.768	-1.024e-4	-1.561e-5
-1.763	-1.001e-4	-1.761e-5
-1.758	-9.807e-5	-1.957e-5
-1.753	-9.611e-5	-2.150e-5
-1.748	-9.429e-5	-2.338e-5
-1.743	-9.257e-5	-2.523e-5
-1.738	-9.095e-5	-2.705e-5
-1.733	-8.941e-5	-2.884e-5
-1.728	-8.795e-5	-3.060e-5
-1.723	-8.654e-5	-3.233e-5
-1.718	-8.516e-5	-3.403e-5
-1.713	-8.382e-5	-3.571e-5
-1.708	-8.252e-5	-3.736e-5
-1.703	-8.125e-5	-3.899e-5
-1.698	-8.003e-5	-4.059e-5
-1.693	-7.885e-5	-4.216e-5
-1.688	-7.771e-5	-4.372e-5
-1.683	-7.660e-5	-4.525e-5
-1.678	-7.551e-5	-4.676e-5
-1.673	-7.446e-5	-4.825e-5
-1.668	-7.342e-5	-4.972e-5
-1.663	-7.240e-5	-5.116e-5
-1.658	-7.141e-5	-5.259e-5
-1.653	-7.044e-5	-5.400e-5
-1.648	-6.950e-5	-5.539e-5
-1.643	-6.860e-5	-5.676e-5
-1.638	-6.770e-5	-5.812e-5
-1.633	-6.681e-5	-5.945e-5
-1.628	-6.591e-5	-6.077e-5
-1.623	-6.500e-5	-6.207e-5
-1.618	-6.412e-5	-6.335e-5
-1.613	-6.326e-5	-6.462e-5
-1.608	-6.243e-5	-6.587e-5
-1.603	-6.162e-5	-6.710e-5
-1.598	-6.082e-5	-6.832e-5
-1.593	-6.000e-5	-6.952e-5
-1.588	-5.919e-5	-7.070e-5
-1.583	-5.839e-5	-7.187e-5
-1.578	-5.761e-5	-7.302e-5
-1.573	-5.685e-5	-7.416e-5
-1.568	-5.610e-5	-7.528e-5
-1.563	-5.535e-5	-7.639e-5
-1.558	-5.462e-5	-7.748e-5
-1.553	-5.388e-5	-7.856e-5
-1.548	-5.313e-5	-7.962e-5
-1.543	-5.238e-5	-8.067e-5
-1.538	-5.165e-5	-8.170e-5
-1.533	-5.092e-5	-8.272e-5
-1.528	-5.019e-5	-8.372e-5
-1.523	-4.947e-5	-8.471e-5
-1.518	-4.874e-5	-8.569e-5
-1.513	-4.801e-5	-8.665e-5
-1.508	-4.729e-5	-8.759e-5
-1.503	-4.655e-5	-8.852e-5
-1.498	-4.581e-5	-8.944e-5
-1.493	-4.507e-5	-9.034e-5
-1.488	-4.433e-5	-9.123e-5
-1.483	-4.359e-5	-9.210e-5
-1.478	-4.284e-5	-9.296e-5
-1.473	-4.209e-5	-9.380e-5
-1.468	-4.133e-5	-9.462e-5
-1.463	-4.055e-5	-9.544e-5
-1.458	-3.977e-5	-9.623e-5
-1.453	-3.899e-5	-9.701e-5
-1.448	-3.821e-5	-9.778e-5
-1.443	-3.742e-5	-9.852e-5
-1.438	-3.662e-5	-9.926e-5
-1.433	-3.580e-5	-9.997e-5
-1.428	-3.498e-5	-1.007e-4
-1.423	-3.416e-5	-1.014e-4
-1.418	-3.333e-5	-1.020e-4
-1.413	-3.250e-5	-1.027e-4
-1.408	-3.166e-5	-1.033e-4
-1.403	-3.082e-5	-1.039e-4
-1.398	-2.999e-5	-1.045e-4
-1.393	-2.914e-5	-1.051e-4
-1.388	-2.828e-5	-1.057e-4
-1.383	-2.741e-5	-1.062e-4
-1.378	-2.653e-5	-1.067e-4
-1.373	-2.564e-5	-1.073e-4
-1.368	-2.475e-5	-1.078e-4
-1.363	-2.385e-5	-1.082e-4
-1.358	-2.295e-5	-1.087e-4
-1.353	-2.206e-5	-1.091e-4
-1.348	-2.116e-5	-1.096e-4
-1.343	-2.025e-5	-1.100e-4
-1.338	-1.933e-5	-1.103e-4
-1.333	-1.842e-5	-1.107e-4
-1.328	-1.752e-5	-1.111e-4
-1.323	-1.663e-5	-1.114e-4
-1.318	-1.576e-5	-1.117e-4
-1.313	-1.490e-5	-1.120e-4
-1.308	-1.403e-5	-1.123e-4
-1.303	-1.317e-5	-1.126e-4
-1.298	-1.230e-5	-1.128e-4
-1.293	-1.144e-5	-1.130e-4
-1.288	-1.061e-5	-1.132e-4
-1.283	-9.791e-6	-1.134e-4
-1.278	-8.995e-6	-1.136e-4
-1.273	-8.224e-6	-1.138e-4
-1.268	-7.472e-6	-1.139e-4
-1.263	-6.739e-6	-1.141e-4
-1.258	-6.027e-6	-1.142e-4
-1.253	-5.327e-6	-1.143e-4
-1.248	-4.639e-6	-1.144e-4
-1.243	-3.983e-6	-1.145e-4
-1.238	-3.354e-6	-1.145e-4
-1.233	-2.764e-6	-1.146e-4
-1.228	-2.216e-6	-1.146e-4
-1.223	-1.697e-6	-1.147e-4
-1.218	-1.195e-6	-1.147e-4
-1.213	-7.136e-7	-1.147e-4
-1.208	-2.462e-7	-1.147e-4
-1.203	1.914e-7	-1.147e-4
-1.198	5.866e-7	-1.147e-4
-1.193	9.435e-7	-1.147e-4
-1.188	1.270e-6	-1.147e-4
-1.183	1.567e-6	-1.146e-4
-1.178	1.844e-6	-1.146e-4
-1.173	2.109e-6	-1.145e-4
-1.168	2.353e-6	-1.145e-4
-1.163	2.574e-6	-1.144e-4
-1.158	2.775e-6	-1.144e-4
-1.153	2.946e-6	-1.143e-4
-1.148	3.089e-6	-1.143e-4
-1.143	3.216e-6	-1.142e-4
-1.138	3.326e-6	-1.141e-4
-1.133	3.418e-6	-1.141e-4
-1.128	3.502e-6	-1.140e-4
-1.123	3.570e-6	-1.139e-4
-1.118	3.622e-6	-1.139e-4
-1.113	3.665e-6	-1.138e-4
-1.108	3.690e-6	-1.137e-4
-1.103	3.706e-6	-1.136e-4
-1.098	3.723e-6	-1.136e-4
-1.093	3.730e-6	-1.135e-4
-1.088	3.732e-6	-1.134e-4
-1.083	3.736e-6	-1.133e-4
-1.078	3.733e-6	-1.133e-4
-1.073	3.723e-6	-1.132e-4
-1.068	3.717e-6	-1.131e-4
-1.063	3.702e-6	-1.130e-4
-1.058	3.681e-6	-1.130e-4
-1.053	3.662e-6	-1.129e-4
-1.048	3.636e-6	-1.128e-4
-1.043	3.604e-6	-1.127e-4
-1.038	3.581e-6	-1.127e-4
-1.033	3.554e-6	-1.126e-4
-1.028	3.526e-6	-1.125e-4
-1.023	3.509e-6	-1.125e-4
-1.018	3.493e-6	-1.124e-4
-1.013	3.483e-6	-1.123e-4
-1.008	3.494e-6	-1.123e-4
-1.003	3.511e-6	-1.122e-4
-0.998	3.531e-6	-1.121e-4
-0.993	3.564e-6	-1.120e-4
-0.988	3.593e-6	-1.120e-4
-0.983	3.625e-6	-1.119e-4
-0.978	3.674e-6	-1.118e-4
-0.973	3.737e-6	-1.117e-4
-0.968	3.811e-6	-1.117e-4
-0.963	3.902e-6	-1.116e-4
-0.958	3.993e-6	-1.115e-4
-0.953	4.088e-6	-1.114e-4
-0.948	4.201e-6	-1.113e-4
-0.943	4.329e-6	-1.113e-4
-0.938	4.479e-6	-1.112e-4
-0.933	4.658e-6	-1.111e-4
-0.928	4.857e-6	-1.110e-4
-0.923	5.075e-6	-1.109e-4
-0.918	5.315e-6	-1.108e-4
-0.913	5.556e-6	-1.107e-4
-0.908	5.813e-6	-1.105e-4
-0.903	6.112e-6	-1.104e-4
-0.898	6.456e-6	-1.103e-4
-0.893	6.855e-6	-1.102e-4
-0.888	7.305e-6	-1.100e-4
-0.883	7.769e-6	-1.099e-4
-0.878	8.261e-6	-1.097e-4
-0.873	8.805e-6	-1.095e-4
-0.868	9.385e-6	-1.093e-4
-0.863	1.001e-5	-1.091e-4
-0.858	1.067e-5	-1.089e-4
-0.853	1.135e-5	-1.087e-4
-0.848	1.206e-5	-1.084e-4
-0.843	1.283e-5	-1.082e-4
-0.838	1.361e-5	-1.079e-4
-0.833	1.444e-5	-1.076e-4
-0.828	1.531e-5	-1.073e-4
-0.823	1.622e-5	-1.070e-4
-0.818	1.718e-5	-1.067e-4
-0.813	1.820e-5	-1.063e-4
-0.808	1.926e-5	-1.059e-4
-0.803	2.035e-5	-1.055e-4
-0.798	2.149e-5	-1.051e-4
-0.793	2.265e-5	-1.046e-4
-0.788	2.385e-5	-1.041e-4
-0.783	2.510e-5	-1.036e-4
-0.778	2.638e-5	-1.031e-4
-0.773	2.771e-5	-1.026e-4
-0.768	2.910e-5	-1.020e-4
-0.763	3.053e-5	-1.014e-4
-0.758	3.200e-5	-1.007e-4
-0.753	3.352e-5	-1.001e-4
-0.748	3.505e-5	-9.935e-5
-0.743	3.660e-5	-9.862e-5
-0.738	3.820e-5	-9.785e-5
-0.733	3.982e-5	-9.706e-5
-0.728	4.149e-5	-9.623e-5
-0.723	4.318e-5	-9.536e-5
-0.718	4.488e-5	-9.447e-5
-0.713	4.661e-5	-9.353e-5
-0.708	4.835e-5	-9.257e-5
-0.703	5.010e-5	-9.156e-5
-0.698	5.188e-5	-9.053e-5
-0.693	5.366e-5	-8.945e-5
-0.688	5.544e-5	-8.834e-5
-0.683	5.722e-5	-8.720e-5
-0.678	5.899e-5	-8.602e-5
-0.673	6.075e-5	-8.481e-5
-0.668	6.251e-5	-8.356e-5
-0.663	6.427e-5	-8.227e-5
-0.658	6.599e-5	-8.095e-5
-0.653	6.770e-5	-7.960e-5
-0.648	6.938e-5	-7.821e-5
-0.643	7.100e-5	-7.679e-5
-0.638	7.260e-5	-7.534e-5
-0.633	7.416e-5	-7.385e-5
-0.628	7.565e-5	-7.234e-5
-0.623	7.709e-5	-7.080e-5
-0.618	7.848e-5	-6.923e-5
-0.613	7.978e-5	-6.763e-5
-0.608	8.103e-5	-6.601e-5
-0.603	8.222e-5	-6.437e-5
-0.598	8.332e-5	-6.270e-5
-0.593	8.437e-5	-6.101e-5
-0.588	8.535e-5	-5.931e-5
-0.583	8.624e-5	-5.758e-5
-0.578	8.705e-5	-5.584e-5
-0.573	8.779e-5	-5.409e-5
-0.568	8.843e-5	-5.232e-5
-0.563	8.902e-5	-5.054e-5
-0.558	8.952e-5	-4.875e-5
-0.553	8.995e-5	-4.695e-5
-0.548	9.030e-5	-4.514e-5
-0.543	9.059e-5	-4.333e-5
-0.538	9.078e-5	-4.151e-5
-0.533	9.089e-5	-3.970e-5
-0.528	9.093e-5	-3.788e-5
-0.523	9.090e-5	-3.606e-5
-0.518	9.082e-5	-3.424e-5
-0.513	9.068e-5	-3.243e-5
-0.508	9.048e-5	-3.062e-5
-0.503	9.023e-5	-2.882e-5
-0.498	8.992e-5	-2.702e-5
-0.493	8.955e-5	-2.523e-5
-0.488	8.914e-5	-2.344e-5
-0.483	8.868e-5	-2.167e-5
-0.478	8.817e-5	-1.991e-5
-0.473	8.764e-5	-1.815e-5
-0.468	8.707e-5	-1.641e-5
-0.463	8.647e-5	-1.468e-5
-0.458	8.586e-5	-1.297e-5
-0.453	8.522e-5	-1.126e-5
-0.448	8.455e-5	-9.570e-6
-0.443	8.387e-5	-7.893e-6
-0.438	8.316e-5	-6.230e-6
-0.433	8.244e-5	-4.581e-6
-0.428	8.172e-5	-2.946e-6
-0.423	8.099e-5	-1.327e-6
-0.418	8.024e-5	2.782e-7
-0.413	7.950e-5	1.868e-6
-0.408	7.873e-5	3.443e-6
-0.403	7.796e-5	5.002e-6
-0.398	7.720e-5	6.546e-6
-0.393	7.644e-5	8.075e-6
-0.388	7.569e-5	9.589e-6
-0.383	7.494e-5	1.109e-5
-0.378	7.420e-5	1.257e-5
-0.373	7.345e-5	1.404e-5
-0.368	7.270e-5	1.549e-5
-0.363	7.196e-5	1.693e-5
-0.358	7.123e-5	1.836e-5
-0.353	7.051e-5	1.977e-5
-0.348	6.980e-5	2.116e-5
-0.343	6.909e-5	2.255e-5
-0.338	6.839e-5	2.391e-5
-0.333	6.769e-5	2.527e-5
-0.328	6.700e-5	2.661e-5
-0.323	6.632e-5	2.793e-5
-0.318	6.565e-5	2.925e-5
-0.313	6.499e-5	3.055e-5
-0.308	6.435e-5	3.183e-5
-0.303	6.371e-5	3.311e-5
-0.298	6.309e-5	3.437e-5
-0.293	6.247e-5	3.562e-5
-0.288	6.185e-5	3.686e-5
-0.283	6.125e-5	3.808e-5
-0.278	6.067e-5	3.929e-5
-0.273	6.009e-5	4.050e-5
-0.268	5.952e-5	4.169e-5
-0.263	5.897e-5	4.287e-5
-0.258	5.842e-5	4.403e-5
-0.253	5.787e-5	4.519e-5
-0.248	5.735e-5	4.634e-5
-0.243	5.683e-5	4.748e-5
-0.238	5.632e-5	4.860e-5
-0.233	5.583e-5	4.972e-5
-0.228	5.533e-5	5.083e-5
-0.223	5.483e-5	5.192e-5
-0.218	5.435e-5	5.301e-5
-0.213	5.388e-5	5.409e-5
-0.208	5.341e-5	5.515e-5
-0.203	5.296e-5	5.621e-5
-0.202	5.009e-5	1.002e-6
-0.207	4.869e-5	1.975e-6
-0.212	4.739e-5	2.923e-6
-0.217	4.621e-5	3.847e-6
-0.222	4.515e-5	4.750e-6
-0.227	4.418e-5	5.634e-6
-0.232	4.329e-5	6.500e-6
-0.237	4.245e-5	7.349e-6
-0.242	4.166e-5	8.182e-6
-0.247	4.089e-5	9.000e-6
-0.252	4.017e-5	9.803e-6
-0.257	3.948e-5	1.059e-5
-0.262	3.882e-5	1.137e-5
-0.267	3.818e-5	1.213e-5
-0.272	3.756e-5	1.288e-5
-0.277	3.695e-5	1.362e-5
-0.282	3.636e-5	1.435e-5
-0.287	3.580e-5	1.507e-5
-0.292	3.525e-5	1.577e-5
-0.297	3.472e-5	1.647e-5
-0.302	3.421e-5	1.715e-5
-0.307	3.369e-5	1.782e-5
-0.312	3.319e-5	1.849e-5
-0.317	3.270e-5	1.914e-5
-0.322	3.223e-5	1.979e-5
-0.327	3.176e-5	2.042e-5
-0.332	3.131e-5	2.105e-5
-0.337	3.086e-5	2.166e-5
-0.342	3.043e-5	2.227e-5
-0.347	3.000e-5	2.287e-5
-0.352	2.959e-5	2.347e-5
-0.357	2.917e-5	2.405e-5
-0.362	2.878e-5	2.462e-5
-0.367	2.838e-5	2.519e-5
-0.372	2.799e-5	2.575e-5
-0.377	2.763e-5	2.630e-5
-0.382	2.726e-5	2.685e-5
-0.387	2.689e-5	2.739e-5
-0.392	2.653e-5	2.792e-5
-0.397	2.617e-5	2.844e-5
-0.402	2.582e-5	2.896e-5
-0.407	2.548e-5	2.947e-5
-0.412	2.513e-5	2.997e-5
-0.417	2.479e-5	3.047e-5
-0.422	2.445e-5	3.095e-5
-0.427	2.411e-5	3.144e-5
-0.432	2.378e-5	3.191e-5
-0.437	2.347e-5	3.238e-5
-0.442	2.315e-5	3.284e-5
-0.447	2.284e-5	3.330e-5
-0.452	2.253e-5	3.375e-5
-0.457	2.222e-5	3.420e-5
-0.462	2.191e-5	3.463e-5
-0.467	2.160e-5	3.507e-5
-0.472	2.130e-5	3.549e-5
-0.477	2.100e-5	3.591e-5
-0.482	2.070e-5	3.633e-5
-0.487	2.040e-5	3.673e-5
-0.492	2.010e-5	3.714e-5
-0.497	1.979e-5	3.753e-5
-0.502	1.948e-5	3.792e-5
-0.507	1.917e-5	3.831e-5
-0.512	1.887e-5	3.868e-5
-0.517	1.858e-5	3.905e-5
-0.522	1.829e-5	3.942e-5
-0.527	1.800e-5	3.978e-5
-0.532	1.771e-5	4.013e-5
-0.537	1.741e-5	4.048e-5
-0.542	1.712e-5	4.083e-5
-0.547	1.682e-5	4.116e-5
-0.552	1.652e-5	4.149e-5
-0.557	1.624e-5	4.182e-5
-0.562	1.595e-5	4.214e-5
-0.567	1.565e-5	4.245e-5
-0.572	1.535e-5	4.276e-5
-0.577	1.503e-5	4.306e-5
-0.582	1.472e-5	4.335e-5
-0.587	1.441e-5	4.364e-5
-0.592	1.411e-5	4.392e-5
-0.597	1.380e-5	4.420e-5
-0.602	1.349e-5	4.447e-5
-0.607	1.318e-5	4.473e-5
-0.612	1.286e-5	4.499e-5
-0.617	1.254e-5	4.524e-5
-0.622	1.223e-5	4.548e-5
-0.627	1.193e-5	4.572e-5
-0.632	1.164e-5	4.595e-5
-0.637	1.134e-5	4.618e-5
-0.642	1.103e-5	4.640e-5
-0.647	1.072e-5	4.662e-5
-0.652	1.041e-5	4.682e-5
-0.657	1.010e-5	4.703e-5
-0.662	9.805e-6	4.722e-5
-0.667	9.519e-6	4.741e-5
-0.672	9.235e-6	4.760e-5
-0.677	8.956e-6	4.778e-5
-0.682	8.669e-6	4.795e-5
-0.687	8.375e-6	4.812e-5
-0.692	8.090e-6	4.828e-5
-0.697	7.806e-6	4.844e-5
-0.702	7.525e-6	4.859e-5
-0.707	7.258e-6	4.873e-5
-0.712	6.996e-6	4.887e-5
-0.717	6.735e-6	4.901e-5
-0.722	6.486e-6	4.914e-5
-0.727	6.234e-6	4.926e-5
-0.732	5.986e-6	4.938e-5
-0.737	5.742e-6	4.950e-5
-0.742	5.501e-6	4.961e-5
-0.747	5.266e-6	4.971e-5
-0.752	5.045e-6	4.981e-5
-0.757	4.835e-6	4.991e-5
-0.762	4.634e-6	5.000e-5
-0.767	4.430e-6	5.009e-5
-0.772	4.220e-6	5.017e-5
-0.777	4.006e-6	5.025e-5
-0.782	3.802e-6	5.033e-5
-0.787	3.615e-6	5.040e-5
-0.792	3.441e-6	5.047e-5
-0.797	3.278e-6	5.054e-5
-0.802	3.116e-6	5.060e-5
-0.807	2.949e-6	5.066e-5
-0.812	2.783e-6	5.071e-5
-0.817	2.617e-6	5.077e-5
-0.822	2.455e-6	5.081e-5
-0.827	2.309e-6	5.086e-5
-0.832	2.166e-6	5.090e-5
-0.837	2.032e-6	5.095e-5
-0.842	1.904e-6	5.098e-5
-0.847	1.771e-6	5.102e-5
-0.852	1.644e-6	5.105e-5
-0.857	1.524e-6	5.108e-5
-0.862	1.402e-6	5.111e-5
-0.867	1.291e-6	5.114e-5
-0.872	1.181e-6	5.116e-5
-0.877	1.056e-6	5.118e-5
-0.882	9.383e-7	5.120e-5
-0.887	8.203e-7	5.122e-5
-0.892	6.940e-7	5.123e-5
-0.897	5.755e-7	5.124e-5
-0.902	4.673e-7	5.125e-5
-0.907	3.643e-7	5.126e-5
-0.912	2.743e-7	5.126e-5
-0.917	1.726e-7	5.127e-5
-0.922	4.679e-8	5.127e-5
-0.927	-9.249e-8	5.127e-5
-0.932	-2.325e-7	5.126e-5
-0.937	-3.638e-7	5.125e-5
-0.942	-4.758e-7	5.124e-5
-0.947	-5.869e-7	5.123e-5
-0.952	-7.053e-7	5.122e-5
-0.957	-8.274e-7	5.120e-5
-0.962	-9.569e-7	5.118e-5
-0.967	-1.095e-6	5.116e-5
-0.972	-1.230e-6	5.114e-5
-0.977	-1.377e-6	5.111e-5
-0.982	-1.541e-6	5.108e-5
-0.987	-1.705e-6	5.104e-5
-0.992	-1.877e-6	5.101e-5
-0.997	-2.058e-6	5.097e-5
-1.002	-2.234e-6	5.092e-5
-1.007	-2.421e-6	5.087e-5
-1.012	-2.625e-6	5.082e-5
-1.017	-2.838e-6	5.076e-5
-1.022	-3.079e-6	5.070e-5
-1.027	-3.332e-6	5.063e-5
-1.032	-3.583e-6	5.056e-5
-1.037	-3.839e-6	5.049e-5
-1.042	-4.107e-6	5.040e-5
-1.047	-4.399e-6	5.032e-5
-1.052	-4.729e-6	5.022e-5
-1.057	-5.078e-6	5.012e-5
-1.062	-5.442e-6	5.001e-5
-1.067	-5.823e-6	4.989e-5
-1.072	-6.228e-6	4.977e-5
-1.077	-6.664e-6	4.964e-5
-1.082	-7.145e-6	4.949e-5
-1.087	-7.662e-6	4.934e-5
-1.092	-8.218e-6	4.918e-5
-1.097	-8.822e-6	4.900e-5
-1.102	-9.470e-6	4.881e-5
-1.107	-1.017e-5	4.861e-5
-1.112	-1.093e-5	4.839e-5
-1.117	-1.176e-5	4.815e-5
-1.122	-1.265e-5	4.790e-5
-1.127	-1.362e-5	4.763e-5
-1.132	-1.465e-5	4.733e-5
-1.137	-1.576e-5	4.702e-5
-1.142	-1.696e-5	4.668e-5
-1.147	-1.827e-5	4.632e-5
-1.152	-1.968e-5	4.592e-5
-1.157	-2.118e-5	4.550e-5
-1.162	-2.280e-5	4.504e-5
-1.167	-2.453e-5	4.455e-5
-1.172	-2.636e-5	4.402e-5
-1.177	-2.833e-5	4.346e-5
-1.182	-3.042e-5	4.285e-5
-1.187	-3.265e-5	4.220e-5
-1.192	-3.501e-5	4.150e-5
-1.197	-3.751e-5	4.075e-5
-1.202	-4.015e-5	3.994e-5
-1.207	-4.292e-5	3.908e-5
-1.212	-4.584e-5	3.817e-5
-1.217	-4.889e-5	3.719e-5
-1.222	-5.203e-5	3.615e-5
-1.227	-5.527e-5	3.504e-5
-1.232	-5.864e-5	3.387e-5
-1.237	-6.212e-5	3.263e-5
-1.242	-6.575e-5	3.131e-5
-1.247	-6.951e-5	2.992e-5
-1.252	-7.337e-5	2.846e-5
-1.257	-7.731e-5	2.691e-5
-1.262	-8.131e-5	2.528e-5
-1.267	-8.531e-5	2.358e-5
-1.272	-8.933e-5	2.179e-5
-1.277	-9.340e-5	1.992e-5
-1.282	-9.748e-5	1.797e-5
-1.287	-1.016e-4	1.594e-5
-1.292	-1.057e-4	1.383e-5
-1.297	-1.097e-4	1.164e-5
-1.302	-1.136e-4	9.363e-6
-1.307	-1.174e-4	7.015e-6
-1.312	-1.212e-4	4.591e-6
-1.317	-1.247e-4	2.097e-6
-1.322	-1.282e-4	-4.668e-7
-1.327	-1.315e-4	-3.096e-6
-1.332	-1.346e-4	-5.787e-6
-1.337	-1.375e-4	-8.536e-6
-1.342	-1.401e-4	-1.134e-5
-1.347	-1.426e-4	-1.419e-5
-1.352	-1.448e-4	-1.709e-5
-1.357	-1.468e-4	-2.002e-5
-1.362	-1.485e-4	-2.299e-5
-1.367	-1.500e-4	-2.599e-5
-1.372	-1.512e-4	-2.902e-5
-1.377	-1.522e-4	-3.206e-5
-1.382	-1.530e-4	-3.512e-5
-1.387	-1.536e-4	-3.819e-5
-1.392	-1.540e-4	-4.127e-5
-1.397	-1.542e-4	-4.436e-5
-1.402	-1.542e-4	-4.744e-5
-1.407	-1.540e-4	-5.052e-5
-1.412	-1.536e-4	-5.359e-5
-1.417	-1.531e-4	-5.665e-5
-1.422	-1.525e-4	-5.970e-5
-1.427	-1.517e-4	-6.274e-5
-1.432	-1.509e-4	-6.576e-5
-1.437	-1.499e-4	-6.875e-5
-1.442	-1.489e-4	-7.173e-5
-1.447	-1.479e-4	-7.469e-5
-1.452	-1.467e-4	-7.763e-5
-1.457	-1.456e-4	-8.054e-5
-1.462	-1.444e-4	-8.342e-5
-1.467	-1.431e-4	-8.629e-5
-1.472	-1.419e-4	-8.913e-5
-1.477	-1.407e-4	-9.194e-5
-1.482	-1.394e-4	-9.473e-5
-1.487	-1.382e-4	-9.749e-5
-1.492	-1.369e-4	-1.002e-4
-1.497	-1.357e-4	-1.029e-4
-1.502	-1.345e-4	-1.056e-4
-1.507	-1.333e-4	-1.083e-4
-1.512	-1.322e-4	-1.109e-4
-1.517	-1.310e-4	-1.136e-4
-1.522	-1.299e-4	-1.162e-4
-1.527	-1.288e-4	-1.187e-4
-1.532	-1.277e-4	-1.213e-4
-1.537	-1.267e-4	-1.238e-4
-1.542	-1.257e-4	-1.263e-4
-1.547	-1.247e-4	-1.288e-4
-1.552	-1.238e-4	-1.313e-4
-1.557	-1.229e-4	-1.338e-4
-1.562	-1.220e-4	-1.362e-4
-1.567	-1.212e-4	-1.386e-4
-1.572	-1.204e-4	-1.410e-4
-1.577	-1.196e-4	-1.434e-4
-1.582	-1.189e-4	-1.458e-4
-1.587	-1.182e-4	-1.482e-4
-1.592	-1.175e-4	-1.505e-4
-1.597	-1.169e-4	-1.529e-4
-1.602	-1.162e-4	-1.552e-4
-1.607	-1.157e-4	-1.575e-4
-1.612	-1.151e-4	-1.598e-4
-1.617	-1.146e-4	-1.621e-4
-1.622	-1.141e-4	-1.644e-4
-1.627	-1.137e-4	-1.666e-4
-1.632	-1.133e-4	-1.689e-4
-1.637	-1.129e-4	-1.712e-4
-1.642	-1.125e-4	-1.734e-4
-1.647	-1.122e-4	-1.757e-4
-1.652	-1.119e-4	-1.779e-4
-1.657	-1.116e-4	-1.801e-4
-1.662	-1.113e-4	-1.824e-4
-1.667	-1.111e-4	-1.846e-4
-1.672	-1.109e-4	-1.868e-4
-1.677	-1.107e-4	-1.890e-4
-1.682	-1.106e-4	-1.912e-4
-1.687	-1.105e-4	-1.934e-4
-1.692	-1.105e-4	-1.956e-4
-1.697	-1.104e-4	-1.979e-4
-1.702	-1.104e-4	-2.001e-4
-1.707	-1.104e-4	-2.023e-4
-1.712	-1.105e-4	-2.045e-4
-1.717	-1.106e-4	-2.067e-4
-1.722	-1.108e-4	-2.089e-4
-1.727	-1.110e-4	-2.111e-4
-1.732	-1.112e-4	-2.133e-4
-1.737	-1.115e-4	-2.156e-4
-1.742	-1.118e-4	-2.178e-4
-1.747	-1.122e-4	-2.201e-4
-1.752	-1.127e-4	-2.223e-4
-1.757	-1.132e-4	-2.246e-4
-1.762	-1.138e-4	-2.268e-4
-1.767	-1.144e-4	-2.291e-4
-1.772	-1.150e-4	-2.314e-4
-1.777	-1.158e-4	-2.338e-4
-1.782	-1.166e-4	-2.361e-4
-1.787	-1.175e-4	-2.384e-4
-1.792	-1.185e-4	-2.408e-4
-1.797	-1.196e-4	-2.432e-4
-1.798	-1.129e-4	-2.258e-6
-1.793	-1.083e-4	-4.424e-6
-1.788	-1.042e-4	-6.509e-6
-1.783	-1.007e-4	-8.522e-6
-1.778	-9.777e-5	-1.048e-5
-1.773	-9.527e-5	-1.238e-5
-1.768	-9.304e-5	-1.424e-5
-1.763	-9.093e-5	-1.606e-5
-1.758	-8.896e-5	-1.784e-5
-1.753	-8.714e-5	-1.958e-5
-1.748	-8.542e-5	-2.129e-5
-1.743	-8.379e-5	-2.297e-5
-1.738	-8.228e-5	-2.461e-5
-1.733	-8.083e-5	-2.623e-5
-1.728	-7.943e-5	-2.782e-5
-1.723	-7.808e-5	-2.938e-5
-1.718	-7.676e-5	-3.092e-5
-1.713	-7.549e-5	-3.243e-5
-1.708	-7.429e-5	-3.391e-5
-1.703	-7.312e-5	-3.537e-5
-1.698	-7.201e-5	-3.681e-5
-1.693	-7.093e-5	-3.823e-5
-1.688	-6.988e-5	-3.963e-5
-1.683	-6.886e-5	-4.101e-5
-1.678	-6.787e-5	-4.237e-5
-1.673	-6.690e-5	-4.370e-5
-1.668	-6.594e-5	-4.502e-5
-1.663	-6.501e-5	-4.632e-5
-1.658	-6.412e-5	-4.761e-5
-1.653	-6.328e-5	-4.887e-5
-1.648	-6.247e-5	-5.012e-5
-1.643	-6.168e-5	-5.135e-5
-1.638	-6.089e-5	-5.257e-5
-1.633	-6.010e-5	-5.377e-5
-1.628	-5.931e-5	-5.496e-5
-1.623	-5.856e-5	-5.613e-5
-1.618	-5.784e-5	-5.729e-5
-1.613	-5.715e-5	-5.843e-5
-1.608	-5.645e-5	-5.956e-5
-1.603	-5.577e-5	-6.068e-5
-1.598	-5.509e-5	-6.178e-5
-1.593	-5.440e-5	-6.287e-5
-1.588	-5.375e-5	-6.394e-5
-1.583	-5.311e-5	-6.500e-5
-1.578	-5.248e-5	-6.605e-5
-1.573	-5.187e-5	-6.709e-5
-1.568	-5.125e-5	-6.811e-5
-1.563	-5.063e-5	-6.913e-5
-1.558	-5.003e-5	-7.013e-5
-1.553	-4.944e-5	-7.112e-5
-1.548	-4.885e-5	-7.209e-5
-1.543	-4.827e-5	-7.306e-5
-1.538	-4.770e-5	-7.401e-5
-1.533	-4.711e-5	-7.495e-5
-1.528	-4.654e-5	-7.589e-5
-1.523	-4.594e-5	-7.680e-5
-1.518	-4.534e-5	-7.771e-5
-1.513	-4.475e-5	-7.861e-5
-1.508	-4.416e-5	-7.949e-5
-1.503	-4.356e-5	-8.036e-5
-1.498	-4.299e-5	-8.122e-5
-1.493	-4.239e-5	-8.207e-5
-1.488	-4.178e-5	-8.290e-5
-1.483	-4.117e-5	-8.373e-5
-1.478	-4.055e-5	-8.454e-5
-1.473	-3.993e-5	-8.534e-5
-1.468	-3.934e-5	-8.612e-5
-1.463	-3.873e-5	-8.690e-5
-1.458	-3.810e-5	-8.766e-5
-1.453	-3.746e-5	-8.841e-5
-1.448	-3.679e-5	-8.914e-5
-1.443	-3.611e-5	-8.987e-5
-1.438	-3.544e-5	-9.058e-5
-1.433	-3.477e-5	-9.127e-5
-1.428	-3.410e-5	-9.195e-5
-1.423	-3.341e-5	-9.262e-5
-1.418	-3.271e-5	-9.328e-5
-1.413	-3.198e-5	-9.392e-5
-1.408	-3.123e-5	-9.454e-5
-1.403	-3.047e-5	-9.515e-5
-1.398	-2.970e-5	-9.574e-5
-1.393	-2.893e-5	-9.632e-5
-1.388	-2.816e-5	-9.689e-5
-1.383	-2.737e-5	-9.743e-5
-1.378	-2.658e-5	-9.796e-5
-1.373	-2.575e-5	-9.848e-5
-1.368	-2.490e-5	-9.898e-5
-1.363	-2.405e-5	-9.946e-5
-1.358	-2.320e-5	-9.992e-5
-1.353	-2.235e-5	-1.004e-4
-1.348	-2.152e-5	-1.008e-4
-1.343	-2.066e-5	-1.012e-4
-1.338	-1.980e-5	-1.016e-4
-1.333	-1.892e-5	-1.020e-4
-1.328	-1.803e-5	-1.023e-4
-1.323	-1.714e-5	-1.027e-4
-1.318	-1.627e-5	-1.030e-4
-1.313	-1.539e-5	-1.033e-4
-1.308	-1.453e-5	-1.036e-4
-1.303	-1.368e-5	-1.039e-4
-1.298	-1.283e-5	-1.041e-4
-1.293	-1.198e-5	-1.044e-4
-1.288	-1.113e-5	-1.046e-4
-1.283	-1.028e-5	-1.048e-4
-1.278	-9.432e-6	-1.050e-4
-1.273	-8.612e-6	-1.052e-4
-1.268	-7.814e-6	-1.053e-4
-1.263	-7.047e-6	-1.055e-4
-1.258	-6.309e-6	-1.056e-4
-1.253	-5.578e-6	-1.057e-4
-1.248	-4.853e-6	-1.058e-4
-1.243	-4.149e-6	-1.059e-4
-1.238	-3.461e-6	-1.060e-4
-1.233	-2.806e-6	-1.060e-4
-1.228	-2.195e-6	-1.061e-4
-1.223	-1.609e-6	-1.061e-4
-1.218	-1.043e-6	-1.061e-4
-1.213	-5.049e-7	-1.061e-4
-1.208	2.017e-8	-1.061e-4
-1.203	5.177e-7	-1.061e-4
-1.198	9.796e-7	-1.061e-4
-1.193	1.421e-6	-1.061e-4
-1.188	1.849e-6	-1.060e-4
-1.183	2.257e-6	-1.060e-4
-1.178	2.659e-6	-1.059e-4
-1.173	3.037e-6	-1.059e-4
-1.168	3.383e-6	-1.058e-4
-1.163	3.706e-6	-1.057e-4
-1.158	4.004e-6	-1.056e-4
-1.153	4.273e-6	-1.056e-4
-1.148	4.527e-6	-1.055e-4
-1.143	4.762e-6	-1.054e-4
-1.138	4.980e-6	-1.053e-4
-1.133	5.195e-6	-1.052e-4
-1.128	5.400e-6	-1.051e-4
-1.123	5.581e-6	-1.049e-4
-1.118	5.742e-6	-1.048e-4
-1.113	5.885e-6	-1.047e-4
-1.108	6.012e-6	-1.046e-4
-1.103	6.143e-6	-1.045e-4
-1.098	6.282e-6	-1.043e-4
-1.093	6.414e-6	-1.042e-4
-1.088	6.538e-6	-1.041e-4
-1.083	6.646e-6	-1.040e-4
-1.078	6.735e-6	-1.038e-4
-1.073	6.813e-6	-1.037e-4
-1.068	6.895e-6	-1.035e-4
-1.063	6.982e-6	-1.034e-4
-1.058	7.083e-6	-1.033e-4
-1.053	7.189e-6	-1.031e-4
-1.048	7.288e-6	-1.030e-4
-1.043	7.367e-6	-1.028e-4
-1.038	7.428e-6	-1.027e-4
-1.033	7.485e-6	-1.025e-4
-1.028	7.547e-6	-1.024e-4
-1.023	7.622e-6	-1.022e-4
-1.018	7.704e-6	-1.021e-4
-1.013	7.786e-6	-1.019e-4
-1.008	7.868e-6	-1.018e-4
-1.003	7.946e-6	-1.016e-4
-0.998	8.026e-6	-1.014e-4
-0.993	8.115e-6	-1.013e-4
-0.988	8.211e-6	-1.011e-4
-0.983	8.315e-6	-1.009e-4
-0.978	8.428e-6	-1.008e-4
-0.973	8.546e-6	-1.006e-4
-0.968	8.668e-6	-1.004e-4
-0.963	8.800e-6	-1.003e-4
-0.958	8.935e-6	-1.001e-4
-0.953	9.076e-6	-9.990e-5
-0.948	9.232e-6	-9.971e-5
-0.943	9.405e-6	-9.953e-5
-0.938	9.600e-6	-9.933e-5
-0.933	9.815e-6	-9.914e-5
-0.928	1.004e-5	-9.894e-5
-0.923	1.029e-5	-9.873e-5
-0.918	1.055e-5	-9.852e-5
-0.913	1.083e-5	-9.830e-5
-0.908	1.114e-5	-9.808e-5
-0.903	1.149e-5	-9.785e-5
-0.898	1.186e-5	-9.761e-5
-0.893	1.226e-5	-9.737e-5
-0.888	1.269e-5	-9.712e-5
-0.883	1.313e-5	-9.685e-5
-0.878	1.361e-5	-9.658e-5
-0.873	1.413e-5	-9.630e-5
-0.868	1.468e-5	-9.600e-5
-0.863	1.528e-5	-9.570e-5
-0.858	1.591e-5	-9.538e-5
-0.853	1.656e-5	-9.505e-5
-0.848	1.725e-5	-9.470e-5
-0.843	1.797e-5	-9.434e-5
-0.838	1.872e-5	-9.397e-5
-0.833	1.953e-5	-9.358e-5
-0.828	2.037e-5	-9.317e-5
-0.823	2.126e-5	-9.275e-5
-0.818	2.219e-5	-9.230e-5
-0.813	2.315e-5	-9.184e-5
-0.808	2.414e-5	-9.136e-5
-0.803	2.518e-5	-9.085e-5
-0.798	2.625e-5	-9.033e-5
-0.793	2.737e-5	-8.978e-5
-0.788	2.854e-5	-8.921e-5
-0.783	2.973e-5	-8.862e-5
-0.778	3.097e-5	-8.800e-5
-0.773	3.223e-5	-8.735e-5
-0.768	3.353e-5	-8.668e-5
-0.763	3.486e-5	-8.598e-5
-0.758	3.625e-5	-8.526e-5
-0.753	3.768e-5	-8.451e-5
-0.748	3.915e-5	-8.372e-5
-0.743	4.066e-5	-8.291e-5
-0.738	4.218e-5	-8.207e-5
-0.733	4.371e-5	-8.119e-5
-0.728	4.527e-5	-8.029e-5
-0.723	4.686e-5	-7.935e-5
-0.718	4.848e-5	-7.838e-5
-0.713	5.015e-5	-7.738e-5
-0.708	5.185e-5	-7.634e-5
-0.703	5.354e-5	-7.527e-5
-0.698	5.525e-5	-7.416e-5
-0.693	5.695e-5	-7.302e-5
-0.688	5.865e-5	-7.185e-5
-0.683	6.036e-5	-7.064e-5
-0.678	6.206e-5	-6.940e-5
-0.673	6.374e-5	-6.813e-5
-0.668	6.544e-5	-6.682e-5
-0.663	6.712e-5	-6.548e-5
-0.658	6.880e-5	-6.410e-5
-0.653	7.046e-5	-6.269e-5
-0.648	7.209e-5	-6.125e-5
-0.643	7.368e-5	-5.978e-5
-0.638	7.523e-5	-5.827e-5
-0.633	7.672e-5	-5.674e-5
-0.628	7.817e-5	-5.517e-5
-0.623	7.958e-5	-5.358e-5
-0.618	8.095e-5	-5.196e-5
-0.613	8.225e-5	-5.032e-5
-0.608	8.350e-5	-4.865e-5
-0.603	8.466e-5	-4.696e-5
-0.598	8.576e-5	-4.524e-5
-0.593	8.679e-5	-4.350e-5
-0.588	8.776e-5	-4.175e-5
-0.583	8.864e-5	-3.998e-5
-0.578	8.946e-5	-3.819e-5
-0.573	9.018e-5	-3.638e-5
-0.568	9.083e-5	-3.457e-5
-0.563	9.140e-5	-3.274e-5
-0.558	9.188e-5	-3.090e-5
-0.553	9.228e-5	-2.906e-5
-0.548	9.262e-5	-2.720e-5
-0.543	9.287e-5	-2.535e-5
-0.538	9.304e-5	-2.349e-5
-0.533	9.315e-5	-2.162e-5
-0.528	9.318e-5	-1.976e-5
-0.523	9.312e-5	-1.790e-5
-0.518	9.301e-5	-1.604e-5
-0.513	9.283e-5	-1.418e-5
-0.508	9.259e-5	-1.233e-5
-0.503	9.232e-5	-1.048e-5
-0.498	9.199e-5	-8.642e-6
-0.493	9.161e-5	-6.810e-6
-0.488	9.119e-5	-4.986e-6
-0.483	9.072e-5	-3.171e-6
-0.478	9.022e-5	-1.367e-6
-0.473	8.969e-5	4.269e-7
-0.468	8.913e-5	2.210e-6
-0.463	8.854e-5	3.980e-6
-0.458	8.793e-5	5.739e-6
-0.453	8.730e-5	7.485e-6
-0.448	8.663e-5	9.218e-6
-0.443	8.596e-5	1.094e-5
-0.438	8.527e-5	1.264e-5
-0.433	8.458e-5	1.433e-5
-0.428	8.388e-5	1.601e-5
-0.423	8.318e-5	1.768e-5
-0.418	8.247e-5	1.932e-5
-0.413	8.175e-5	2.096e-5
-0.408	8.104e-5	2.258e-5
-0.403	8.032e-5	2.419e-5
-0.398	7.961e-5	2.578e-5
-0.393	7.892e-5	2.736e-5
-0.388	7.822e-5	2.892e-5
-0.383	7.752e-5	3.047e-5
-0.378	7.683e-5	3.201e-5
-0.373	7.613e-5	3.353e-5
-0.368	7.546e-5	3.504e-5
-0.363	7.481e-5	3.654e-5
-0.358	7.416e-5	3.802e-5
-0.353	7.353e-5	3.949e-5
-0.348	7.291e-5	4.095e-5
-0.343	7.227e-5	4.239e-5
-0.338	7.163e-5	4.383e-5
-0.333	7.101e-5	4.525e-5
-0.328	7.039e-5	4.665e-5
-0.323	6.980e-5	4.805e-5
-0.318	6.924e-5	4.944e-5
-0.313	6.869e-5	5.081e-5
-0.308	6.815e-5	5.217e-5
-0.303	6.763e-5	5.352e-5
-0.298	6.710e-5	5.487e-5
-0.293	6.657e-5	5.620e-5
-0.288	6.605e-5	5.752e-5
-0.283	6.554e-5	5.883e-5
-0.278	6.506e-5	6.013e-5
-0.273	6.459e-5	6.142e-5
-0.268	6.414e-5	6.271e-5
-0.263	6.370e-5	6.398e-5
-0.258	6.325e-5	6.524e-5
-0.253	6.279e-5	6.650e-5
-0.248	6.235e-5	6.775e-5
-0.243	6.193e-5	6.899e-5
-0.238	6.153e-5	7.022e-5
-0.233	6.114e-5	7.144e-5
-0.228	6.076e-5	7.265e-5
-0.223	6.038e-5	7.386e-5
-0.218	6.001e-5	7.506e-5
-0.213	5.963e-5	7.626e-5
-0.208	5.926e-5	7.744e-5
-0.203	5.889e-5	7.862e-5
