Oct. 16, 2019   12:50:29
Cyclic Voltammetry
File: cv_mpz_re2_013
Data Source:  Experiment
Instrument Model:  CHI760E
Data Proc:  Smoothing
Header: 
Note: 

Init E (V) = -0.2
High E (V) = -0.2
Low E (V) = -1.9
Init P/N = N
Scan Rate (V/s) = 0.25
Segment = 6
Sample Interval (V) = 0.005
Quiet Time (sec) = 2
Sensitivity (A/V) = 1e-4

Segment 1:
Ep = -1.472V
ip = -1.908e-4A
Ah = -1.064e-4C

Segment 2:
Ep = -1.008V
ip = 1.164e-4A
Ah = 7.442e-5C

Segment 3:
Ep = -1.472V
ip = -1.870e-4A
Ah = -1.083e-4C

Segment 4:
Ep = -1.008V
ip = 1.231e-4A
Ah = 7.724e-5C

Segment 5:
Ep = -1.472V
ip = -1.803e-4A
Ah = -1.065e-4C

Segment 6:
Ep = -0.998V
ip = 1.230e-4A
Ah = 7.874e-5C

Potential/V	Current/A

-0.202	1.559e-5	3.119e-7
-0.207	1.538e-5	6.195e-7
-0.212	1.518e-5	9.230e-7
-0.217	1.499e-5	1.223e-6
-0.222	1.482e-5	1.519e-6
-0.227	1.466e-5	1.812e-6
-0.232	1.451e-5	2.102e-6
-0.237	1.436e-5	2.390e-6
-0.242	1.421e-5	2.674e-6
-0.247	1.406e-5	2.955e-6
-0.252	1.392e-5	3.233e-6
-0.257	1.378e-5	3.509e-6
-0.262	1.365e-5	3.782e-6
-0.267	1.352e-5	4.052e-6
-0.272	1.340e-5	4.320e-6
-0.277	1.328e-5	4.586e-6
-0.282	1.315e-5	4.849e-6
-0.287	1.302e-5	5.109e-6
-0.292	1.291e-5	5.367e-6
-0.297	1.280e-5	5.623e-6
-0.302	1.268e-5	5.877e-6
-0.307	1.257e-5	6.128e-6
-0.312	1.247e-5	6.378e-6
-0.317	1.236e-5	6.625e-6
-0.322	1.226e-5	6.870e-6
-0.327	1.216e-5	7.114e-6
-0.332	1.204e-5	7.354e-6
-0.337	1.192e-5	7.593e-6
-0.342	1.181e-5	7.829e-6
-0.347	1.169e-5	8.063e-6
-0.352	1.159e-5	8.295e-6
-0.357	1.148e-5	8.524e-6
-0.362	1.137e-5	8.752e-6
-0.367	1.127e-5	8.977e-6
-0.372	1.117e-5	9.200e-6
-0.377	1.107e-5	9.422e-6
-0.382	1.096e-5	9.641e-6
-0.387	1.085e-5	9.858e-6
-0.392	1.075e-5	1.007e-5
-0.397	1.066e-5	1.029e-5
-0.402	1.059e-5	1.050e-5
-0.407	1.052e-5	1.071e-5
-0.412	1.042e-5	1.092e-5
-0.417	1.031e-5	1.112e-5
-0.422	1.019e-5	1.133e-5
-0.427	1.009e-5	1.153e-5
-0.432	9.988e-6	1.173e-5
-0.437	9.892e-6	1.193e-5
-0.442	9.797e-6	1.212e-5
-0.447	9.706e-6	1.232e-5
-0.452	9.612e-6	1.251e-5
-0.457	9.522e-6	1.270e-5
-0.462	9.428e-6	1.289e-5
-0.467	9.329e-6	1.307e-5
-0.472	9.229e-6	1.326e-5
-0.477	9.130e-6	1.344e-5
-0.482	9.032e-6	1.362e-5
-0.487	8.944e-6	1.380e-5
-0.492	8.858e-6	1.398e-5
-0.497	8.769e-6	1.415e-5
-0.502	8.679e-6	1.433e-5
-0.507	8.584e-6	1.450e-5
-0.512	8.485e-6	1.467e-5
-0.517	8.390e-6	1.484e-5
-0.522	8.293e-6	1.500e-5
-0.527	8.193e-6	1.517e-5
-0.532	8.093e-6	1.533e-5
-0.537	7.990e-6	1.549e-5
-0.542	7.886e-6	1.565e-5
-0.547	7.792e-6	1.580e-5
-0.552	7.699e-6	1.595e-5
-0.557	7.606e-6	1.611e-5
-0.562	7.516e-6	1.626e-5
-0.567	7.422e-6	1.641e-5
-0.572	7.322e-6	1.655e-5
-0.577	7.225e-6	1.670e-5
-0.582	7.125e-6	1.684e-5
-0.587	7.020e-6	1.698e-5
-0.592	6.923e-6	1.712e-5
-0.597	6.832e-6	1.725e-5
-0.602	6.740e-6	1.739e-5
-0.607	6.652e-6	1.752e-5
-0.612	6.563e-6	1.765e-5
-0.617	6.461e-6	1.778e-5
-0.622	6.363e-6	1.791e-5
-0.627	6.264e-6	1.804e-5
-0.632	6.159e-6	1.816e-5
-0.637	6.059e-6	1.828e-5
-0.642	5.962e-6	1.840e-5
-0.647	5.858e-6	1.852e-5
-0.652	5.762e-6	1.863e-5
-0.657	5.667e-6	1.874e-5
-0.662	5.567e-6	1.886e-5
-0.667	5.470e-6	1.897e-5
-0.672	5.373e-6	1.907e-5
-0.677	5.270e-6	1.918e-5
-0.682	5.170e-6	1.928e-5
-0.687	5.075e-6	1.938e-5
-0.692	4.978e-6	1.948e-5
-0.697	4.886e-6	1.958e-5
-0.702	4.793e-6	1.968e-5
-0.707	4.689e-6	1.977e-5
-0.712	4.584e-6	1.986e-5
-0.717	4.476e-6	1.995e-5
-0.722	4.363e-6	2.004e-5
-0.727	4.260e-6	2.012e-5
-0.732	4.163e-6	2.021e-5
-0.737	4.066e-6	2.029e-5
-0.742	3.978e-6	2.037e-5
-0.747	3.888e-6	2.045e-5
-0.752	3.791e-6	2.052e-5
-0.757	3.696e-6	2.060e-5
-0.762	3.598e-6	2.067e-5
-0.767	3.499e-6	2.074e-5
-0.772	3.410e-6	2.081e-5
-0.777	3.325e-6	2.087e-5
-0.782	3.240e-6	2.094e-5
-0.787	3.155e-6	2.100e-5
-0.792	3.062e-6	2.106e-5
-0.797	2.959e-6	2.112e-5
-0.802	2.865e-6	2.118e-5
-0.807	2.778e-6	2.123e-5
-0.812	2.694e-6	2.129e-5
-0.817	2.614e-6	2.134e-5
-0.822	2.527e-6	2.139e-5
-0.827	2.425e-6	2.144e-5
-0.832	2.325e-6	2.149e-5
-0.837	2.228e-6	2.153e-5
-0.842	2.132e-6	2.157e-5
-0.847	2.044e-6	2.161e-5
-0.852	1.954e-6	2.165e-5
-0.857	1.846e-6	2.169e-5
-0.862	1.734e-6	2.172e-5
-0.867	1.614e-6	2.176e-5
-0.872	1.495e-6	2.179e-5
-0.877	1.388e-6	2.181e-5
-0.882	1.292e-6	2.184e-5
-0.887	1.191e-6	2.186e-5
-0.892	1.089e-6	2.189e-5
-0.897	9.755e-7	2.190e-5
-0.902	8.518e-7	2.192e-5
-0.907	7.278e-7	2.194e-5
-0.912	6.103e-7	2.195e-5
-0.917	4.926e-7	2.196e-5
-0.922	3.829e-7	2.197e-5
-0.927	2.754e-7	2.197e-5
-0.932	1.589e-7	2.197e-5
-0.937	3.697e-8	2.198e-5
-0.942	-8.820e-8	2.197e-5
-0.947	-2.237e-7	2.197e-5
-0.952	-3.539e-7	2.196e-5
-0.957	-4.762e-7	2.195e-5
-0.962	-6.012e-7	2.194e-5
-0.967	-7.284e-7	2.193e-5
-0.972	-8.610e-7	2.191e-5
-0.977	-1.009e-6	2.189e-5
-0.982	-1.159e-6	2.187e-5
-0.987	-1.308e-6	2.184e-5
-0.992	-1.459e-6	2.181e-5
-0.997	-1.604e-6	2.178e-5
-1.002	-1.737e-6	2.174e-5
-1.007	-1.873e-6	2.171e-5
-1.012	-2.009e-6	2.167e-5
-1.017	-2.152e-6	2.162e-5
-1.022	-2.316e-6	2.158e-5
-1.027	-2.495e-6	2.153e-5
-1.032	-2.674e-6	2.147e-5
-1.037	-2.861e-6	2.142e-5
-1.042	-3.048e-6	2.135e-5
-1.047	-3.234e-6	2.129e-5
-1.052	-3.435e-6	2.122e-5
-1.057	-3.647e-6	2.115e-5
-1.062	-3.859e-6	2.107e-5
-1.067	-4.079e-6	2.099e-5
-1.072	-4.302e-6	2.090e-5
-1.077	-4.521e-6	2.081e-5
-1.082	-4.750e-6	2.072e-5
-1.087	-4.981e-6	2.062e-5
-1.092	-5.218e-6	2.051e-5
-1.097	-5.473e-6	2.040e-5
-1.102	-5.742e-6	2.029e-5
-1.107	-6.018e-6	2.017e-5
-1.112	-6.306e-6	2.004e-5
-1.117	-6.593e-6	1.991e-5
-1.122	-6.880e-6	1.977e-5
-1.127	-7.183e-6	1.963e-5
-1.132	-7.502e-6	1.948e-5
-1.137	-7.840e-6	1.932e-5
-1.142	-8.203e-6	1.916e-5
-1.147	-8.585e-6	1.899e-5
-1.152	-8.985e-6	1.881e-5
-1.157	-9.415e-6	1.862e-5
-1.162	-9.870e-6	1.842e-5
-1.167	-1.035e-5	1.822e-5
-1.172	-1.086e-5	1.800e-5
-1.177	-1.141e-5	1.777e-5
-1.182	-1.202e-5	1.753e-5
-1.187	-1.270e-5	1.728e-5
-1.192	-1.343e-5	1.701e-5
-1.197	-1.421e-5	1.672e-5
-1.202	-1.505e-5	1.642e-5
-1.207	-1.596e-5	1.610e-5
-1.212	-1.695e-5	1.576e-5
-1.217	-1.805e-5	1.540e-5
-1.222	-1.924e-5	1.502e-5
-1.227	-2.053e-5	1.461e-5
-1.232	-2.193e-5	1.417e-5
-1.237	-2.344e-5	1.370e-5
-1.242	-2.506e-5	1.320e-5
-1.247	-2.682e-5	1.266e-5
-1.252	-2.873e-5	1.209e-5
-1.257	-3.079e-5	1.147e-5
-1.262	-3.303e-5	1.081e-5
-1.267	-3.546e-5	1.010e-5
-1.272	-3.805e-5	9.341e-6
-1.277	-4.082e-5	8.524e-6
-1.282	-4.381e-5	7.648e-6
-1.287	-4.697e-5	6.709e-6
-1.292	-5.035e-5	5.702e-6
-1.297	-5.395e-5	4.623e-6
-1.302	-5.772e-5	3.468e-6
-1.307	-6.173e-5	2.234e-6
-1.312	-6.598e-5	9.141e-7
-1.317	-7.040e-5	-4.940e-7
-1.322	-7.504e-5	-1.995e-6
-1.327	-7.988e-5	-3.592e-6
-1.332	-8.490e-5	-5.290e-6
-1.337	-9.012e-5	-7.093e-6
-1.342	-9.552e-5	-9.003e-6
-1.347	-1.010e-4	-1.102e-5
-1.352	-1.067e-4	-1.316e-5
-1.357	-1.125e-4	-1.541e-5
-1.362	-1.184e-4	-1.777e-5
-1.367	-1.243e-4	-2.026e-5
-1.372	-1.303e-4	-2.287e-5
-1.377	-1.362e-4	-2.559e-5
-1.382	-1.420e-4	-2.843e-5
-1.387	-1.477e-4	-3.139e-5
-1.392	-1.530e-4	-3.445e-5
-1.397	-1.580e-4	-3.760e-5
-1.402	-1.626e-4	-4.086e-5
-1.407	-1.670e-4	-4.420e-5
-1.412	-1.712e-4	-4.762e-5
-1.417	-1.752e-4	-5.112e-5
-1.422	-1.789e-4	-5.470e-5
-1.427	-1.825e-4	-5.835e-5
-1.432	-1.858e-4	-6.207e-5
-1.437	-1.887e-4	-6.584e-5
-1.442	-1.914e-4	-6.967e-5
-1.447	-1.937e-4	-7.355e-5
-1.452	-1.957e-4	-7.746e-5
-1.457	-1.973e-4	-8.140e-5
-1.462	-1.985e-4	-8.537e-5
-1.467	-1.993e-4	-8.936e-5
-1.472	-1.996e-4	-9.335e-5
-1.477	-1.996e-4	-9.734e-5
-1.482	-1.991e-4	-1.013e-4
-1.487	-1.983e-4	-1.053e-4
-1.492	-1.971e-4	-1.092e-4
-1.497	-1.955e-4	-1.131e-4
-1.502	-1.936e-4	-1.170e-4
-1.507	-1.915e-4	-1.208e-4
-1.512	-1.893e-4	-1.246e-4
-1.517	-1.870e-4	-1.284e-4
-1.522	-1.847e-4	-1.321e-4
-1.527	-1.824e-4	-1.357e-4
-1.532	-1.801e-4	-1.393e-4
-1.537	-1.779e-4	-1.429e-4
-1.542	-1.756e-4	-1.464e-4
-1.547	-1.734e-4	-1.499e-4
-1.552	-1.712e-4	-1.533e-4
-1.557	-1.691e-4	-1.567e-4
-1.562	-1.670e-4	-1.600e-4
-1.567	-1.650e-4	-1.633e-4
-1.572	-1.631e-4	-1.666e-4
-1.577	-1.612e-4	-1.698e-4
-1.582	-1.594e-4	-1.730e-4
-1.587	-1.576e-4	-1.761e-4
-1.592	-1.560e-4	-1.792e-4
-1.597	-1.544e-4	-1.823e-4
-1.602	-1.528e-4	-1.854e-4
-1.607	-1.513e-4	-1.884e-4
-1.612	-1.499e-4	-1.914e-4
-1.617	-1.486e-4	-1.944e-4
-1.622	-1.473e-4	-1.973e-4
-1.627	-1.460e-4	-2.003e-4
-1.632	-1.448e-4	-2.032e-4
-1.637	-1.437e-4	-2.060e-4
-1.642	-1.426e-4	-2.089e-4
-1.647	-1.416e-4	-2.117e-4
-1.652	-1.406e-4	-2.145e-4
-1.657	-1.396e-4	-2.173e-4
-1.662	-1.386e-4	-2.201e-4
-1.667	-1.377e-4	-2.228e-4
-1.672	-1.368e-4	-2.256e-4
-1.677	-1.360e-4	-2.283e-4
-1.682	-1.352e-4	-2.310e-4
-1.687	-1.344e-4	-2.337e-4
-1.692	-1.336e-4	-2.364e-4
-1.697	-1.329e-4	-2.390e-4
-1.702	-1.322e-4	-2.417e-4
-1.707	-1.315e-4	-2.443e-4
-1.712	-1.308e-4	-2.469e-4
-1.717	-1.301e-4	-2.495e-4
-1.722	-1.295e-4	-2.521e-4
-1.727	-1.289e-4	-2.547e-4
-1.732	-1.283e-4	-2.572e-4
-1.737	-1.277e-4	-2.598e-4
-1.742	-1.272e-4	-2.623e-4
-1.747	-1.267e-4	-2.649e-4
-1.752	-1.262e-4	-2.674e-4
-1.757	-1.258e-4	-2.699e-4
-1.762	-1.254e-4	-2.724e-4
-1.767	-1.250e-4	-2.749e-4
-1.772	-1.246e-4	-2.774e-4
-1.777	-1.243e-4	-2.799e-4
-1.782	-1.240e-4	-2.824e-4
-1.787	-1.238e-4	-2.849e-4
-1.792	-1.236e-4	-2.873e-4
-1.797	-1.234e-4	-2.898e-4
-1.802	-1.233e-4	-2.923e-4
-1.807	-1.232e-4	-2.947e-4
-1.812	-1.231e-4	-2.972e-4
-1.817	-1.231e-4	-2.997e-4
-1.822	-1.231e-4	-3.021e-4
-1.827	-1.231e-4	-3.046e-4
-1.832	-1.232e-4	-3.070e-4
-1.837	-1.233e-4	-3.095e-4
-1.842	-1.234e-4	-3.120e-4
-1.847	-1.236e-4	-3.144e-4
-1.852	-1.238e-4	-3.169e-4
-1.857	-1.241e-4	-3.194e-4
-1.862	-1.243e-4	-3.219e-4
-1.867	-1.246e-4	-3.244e-4
-1.872	-1.250e-4	-3.269e-4
-1.877	-1.253e-4	-3.294e-4
-1.882	-1.258e-4	-3.319e-4
-1.887	-1.262e-4	-3.344e-4
-1.892	-1.267e-4	-3.370e-4
-1.897	-1.273e-4	-3.395e-4
-1.898	-1.227e-4	-2.454e-6
-1.893	-1.194e-4	-4.841e-6
-1.888	-1.164e-4	-7.169e-6
-1.883	-1.136e-4	-9.441e-6
-1.878	-1.112e-4	-1.167e-5
-1.873	-1.091e-4	-1.385e-5
-1.868	-1.071e-4	-1.599e-5
-1.863	-1.052e-4	-1.809e-5
-1.858	-1.034e-4	-2.016e-5
-1.853	-1.017e-4	-2.220e-5
-1.848	-1.001e-4	-2.420e-5
-1.843	-9.859e-5	-2.617e-5
-1.838	-9.715e-5	-2.811e-5
-1.833	-9.577e-5	-3.003e-5
-1.828	-9.445e-5	-3.192e-5
-1.823	-9.317e-5	-3.378e-5
-1.818	-9.193e-5	-3.562e-5
-1.813	-9.075e-5	-3.743e-5
-1.808	-8.960e-5	-3.923e-5
-1.803	-8.851e-5	-4.100e-5
-1.798	-8.747e-5	-4.275e-5
-1.793	-8.644e-5	-4.447e-5
-1.788	-8.545e-5	-4.618e-5
-1.783	-8.446e-5	-4.787e-5
-1.778	-8.351e-5	-4.954e-5
-1.773	-8.262e-5	-5.120e-5
-1.768	-8.177e-5	-5.283e-5
-1.763	-8.092e-5	-5.445e-5
-1.758	-8.006e-5	-5.605e-5
-1.753	-7.916e-5	-5.763e-5
-1.748	-7.828e-5	-5.920e-5
-1.743	-7.746e-5	-6.075e-5
-1.738	-7.670e-5	-6.228e-5
-1.733	-7.597e-5	-6.380e-5
-1.728	-7.527e-5	-6.531e-5
-1.723	-7.456e-5	-6.680e-5
-1.718	-7.387e-5	-6.828e-5
-1.713	-7.320e-5	-6.974e-5
-1.708	-7.253e-5	-7.119e-5
-1.703	-7.187e-5	-7.263e-5
-1.698	-7.120e-5	-7.405e-5
-1.693	-7.054e-5	-7.546e-5
-1.688	-6.988e-5	-7.686e-5
-1.683	-6.923e-5	-7.824e-5
-1.678	-6.861e-5	-7.962e-5
-1.673	-6.798e-5	-8.098e-5
-1.668	-6.735e-5	-8.232e-5
-1.663	-6.672e-5	-8.366e-5
-1.658	-6.608e-5	-8.498e-5
-1.653	-6.544e-5	-8.629e-5
-1.648	-6.481e-5	-8.758e-5
-1.643	-6.418e-5	-8.887e-5
-1.638	-6.353e-5	-9.014e-5
-1.633	-6.290e-5	-9.140e-5
-1.628	-6.225e-5	-9.264e-5
-1.623	-6.161e-5	-9.387e-5
-1.618	-6.096e-5	-9.509e-5
-1.613	-6.032e-5	-9.630e-5
-1.608	-5.967e-5	-9.749e-5
-1.603	-5.903e-5	-9.867e-5
-1.598	-5.838e-5	-9.984e-5
-1.593	-5.773e-5	-1.010e-4
-1.588	-5.706e-5	-1.021e-4
-1.583	-5.640e-5	-1.033e-4
-1.578	-5.573e-5	-1.044e-4
-1.573	-5.508e-5	-1.055e-4
-1.568	-5.442e-5	-1.066e-4
-1.563	-5.377e-5	-1.076e-4
-1.558	-5.311e-5	-1.087e-4
-1.553	-5.244e-5	-1.098e-4
-1.548	-5.175e-5	-1.108e-4
-1.543	-5.107e-5	-1.118e-4
-1.538	-5.037e-5	-1.128e-4
-1.533	-4.968e-5	-1.138e-4
-1.528	-4.899e-5	-1.148e-4
-1.523	-4.827e-5	-1.158e-4
-1.518	-4.754e-5	-1.167e-4
-1.513	-4.679e-5	-1.176e-4
-1.508	-4.601e-5	-1.186e-4
-1.503	-4.521e-5	-1.195e-4
-1.498	-4.441e-5	-1.204e-4
-1.493	-4.358e-5	-1.212e-4
-1.488	-4.275e-5	-1.221e-4
-1.483	-4.189e-5	-1.229e-4
-1.478	-4.100e-5	-1.237e-4
-1.473	-4.007e-5	-1.245e-4
-1.468	-3.911e-5	-1.253e-4
-1.463	-3.811e-5	-1.261e-4
-1.458	-3.710e-5	-1.268e-4
-1.453	-3.607e-5	-1.276e-4
-1.448	-3.499e-5	-1.283e-4
-1.443	-3.391e-5	-1.289e-4
-1.438	-3.280e-5	-1.296e-4
-1.433	-3.165e-5	-1.302e-4
-1.428	-3.048e-5	-1.308e-4
-1.423	-2.929e-5	-1.314e-4
-1.418	-2.808e-5	-1.320e-4
-1.413	-2.687e-5	-1.325e-4
-1.408	-2.565e-5	-1.330e-4
-1.403	-2.441e-5	-1.335e-4
-1.398	-2.316e-5	-1.340e-4
-1.393	-2.191e-5	-1.344e-4
-1.388	-2.065e-5	-1.348e-4
-1.383	-1.941e-5	-1.352e-4
-1.378	-1.818e-5	-1.356e-4
-1.373	-1.695e-5	-1.359e-4
-1.368	-1.574e-5	-1.362e-4
-1.363	-1.455e-5	-1.365e-4
-1.358	-1.338e-5	-1.368e-4
-1.353	-1.222e-5	-1.370e-4
-1.348	-1.110e-5	-1.373e-4
-1.343	-9.996e-6	-1.375e-4
-1.338	-8.932e-6	-1.376e-4
-1.333	-7.900e-6	-1.378e-4
-1.328	-6.879e-6	-1.379e-4
-1.323	-5.881e-6	-1.381e-4
-1.318	-4.905e-6	-1.381e-4
-1.313	-3.945e-6	-1.382e-4
-1.308	-3.019e-6	-1.383e-4
-1.303	-2.133e-6	-1.383e-4
-1.298	-1.272e-6	-1.384e-4
-1.293	-4.334e-7	-1.384e-4
-1.288	3.939e-7	-1.384e-4
-1.283	1.224e-6	-1.383e-4
-1.278	2.050e-6	-1.383e-4
-1.273	2.863e-6	-1.382e-4
-1.268	3.682e-6	-1.382e-4
-1.263	4.501e-6	-1.381e-4
-1.258	5.336e-6	-1.380e-4
-1.253	6.196e-6	-1.378e-4
-1.248	7.078e-6	-1.377e-4
-1.243	7.981e-6	-1.375e-4
-1.238	8.926e-6	-1.374e-4
-1.233	9.907e-6	-1.372e-4
-1.228	1.094e-5	-1.369e-4
-1.223	1.205e-5	-1.367e-4
-1.218	1.322e-5	-1.364e-4
-1.213	1.447e-5	-1.361e-4
-1.208	1.581e-5	-1.358e-4
-1.203	1.726e-5	-1.355e-4
-1.198	1.884e-5	-1.351e-4
-1.193	2.054e-5	-1.347e-4
-1.188	2.238e-5	-1.343e-4
-1.183	2.435e-5	-1.338e-4
-1.178	2.646e-5	-1.332e-4
-1.173	2.871e-5	-1.327e-4
-1.168	3.113e-5	-1.320e-4
-1.163	3.372e-5	-1.314e-4
-1.158	3.649e-5	-1.306e-4
-1.153	3.944e-5	-1.298e-4
-1.148	4.258e-5	-1.290e-4
-1.143	4.587e-5	-1.281e-4
-1.138	4.932e-5	-1.271e-4
-1.133	5.294e-5	-1.260e-4
-1.128	5.670e-5	-1.249e-4
-1.123	6.061e-5	-1.237e-4
-1.118	6.468e-5	-1.224e-4
-1.113	6.882e-5	-1.210e-4
-1.108	7.306e-5	-1.196e-4
-1.103	7.738e-5	-1.180e-4
-1.098	8.172e-5	-1.164e-4
-1.093	8.606e-5	-1.147e-4
-1.088	9.041e-5	-1.128e-4
-1.083	9.468e-5	-1.109e-4
-1.078	9.888e-5	-1.090e-4
-1.073	1.030e-4	-1.069e-4
-1.068	1.068e-4	-1.048e-4
-1.063	1.104e-4	-1.026e-4
-1.058	1.137e-4	-1.003e-4
-1.053	1.169e-4	-9.796e-5
-1.048	1.198e-4	-9.556e-5
-1.043	1.225e-4	-9.311e-5
-1.038	1.249e-4	-9.061e-5
-1.033	1.270e-4	-8.807e-5
-1.028	1.288e-4	-8.550e-5
-1.023	1.302e-4	-8.289e-5
-1.018	1.313e-4	-8.027e-5
-1.013	1.320e-4	-7.763e-5
-1.008	1.323e-4	-7.498e-5
-1.003	1.322e-4	-7.234e-5
-0.998	1.319e-4	-6.970e-5
-0.993	1.313e-4	-6.708e-5
-0.988	1.304e-4	-6.447e-5
-0.983	1.293e-4	-6.188e-5
-0.978	1.281e-4	-5.932e-5
-0.973	1.266e-4	-5.679e-5
-0.968	1.251e-4	-5.428e-5
-0.963	1.235e-4	-5.182e-5
-0.958	1.218e-4	-4.938e-5
-0.953	1.200e-4	-4.698e-5
-0.948	1.182e-4	-4.462e-5
-0.943	1.163e-4	-4.229e-5
-0.938	1.144e-4	-4.000e-5
-0.933	1.126e-4	-3.775e-5
-0.928	1.107e-4	-3.554e-5
-0.923	1.089e-4	-3.336e-5
-0.918	1.071e-4	-3.122e-5
-0.913	1.053e-4	-2.911e-5
-0.908	1.035e-4	-2.704e-5
-0.903	1.018e-4	-2.501e-5
-0.898	1.002e-4	-2.300e-5
-0.893	9.856e-5	-2.103e-5
-0.888	9.701e-5	-1.909e-5
-0.883	9.550e-5	-1.718e-5
-0.878	9.402e-5	-1.530e-5
-0.873	9.258e-5	-1.345e-5
-0.868	9.118e-5	-1.162e-5
-0.863	8.984e-5	-9.828e-6
-0.858	8.855e-5	-8.057e-6
-0.853	8.731e-5	-6.311e-6
-0.848	8.611e-5	-4.589e-6
-0.843	8.495e-5	-2.889e-6
-0.838	8.382e-5	-1.213e-6
-0.833	8.272e-5	4.415e-7
-0.828	8.166e-5	2.075e-6
-0.823	8.061e-5	3.687e-6
-0.818	7.960e-5	5.279e-6
-0.813	7.863e-5	6.851e-6
-0.808	7.768e-5	8.405e-6
-0.803	7.676e-5	9.940e-6
-0.798	7.587e-5	1.146e-5
-0.793	7.497e-5	1.296e-5
-0.788	7.409e-5	1.444e-5
-0.783	7.323e-5	1.590e-5
-0.778	7.239e-5	1.735e-5
-0.773	7.158e-5	1.878e-5
-0.768	7.080e-5	2.020e-5
-0.763	7.002e-5	2.160e-5
-0.758	6.925e-5	2.298e-5
-0.753	6.850e-5	2.435e-5
-0.748	6.775e-5	2.571e-5
-0.743	6.701e-5	2.705e-5
-0.738	6.630e-5	2.838e-5
-0.733	6.560e-5	2.969e-5
-0.728	6.492e-5	3.099e-5
-0.723	6.425e-5	3.227e-5
-0.718	6.358e-5	3.354e-5
-0.713	6.293e-5	3.480e-5
-0.708	6.230e-5	3.605e-5
-0.703	6.169e-5	3.728e-5
-0.698	6.109e-5	3.850e-5
-0.693	6.050e-5	3.971e-5
-0.688	5.993e-5	4.091e-5
-0.683	5.936e-5	4.210e-5
-0.678	5.881e-5	4.327e-5
-0.673	5.827e-5	4.444e-5
-0.668	5.774e-5	4.559e-5
-0.663	5.722e-5	4.674e-5
-0.658	5.672e-5	4.787e-5
-0.653	5.624e-5	4.900e-5
-0.648	5.577e-5	5.011e-5
-0.643	5.532e-5	5.122e-5
-0.638	5.486e-5	5.232e-5
-0.633	5.441e-5	5.341e-5
-0.628	5.397e-5	5.449e-5
-0.623	5.353e-5	5.556e-5
-0.618	5.311e-5	5.662e-5
-0.613	5.270e-5	5.767e-5
-0.608	5.230e-5	5.872e-5
-0.603	5.190e-5	5.976e-5
-0.598	5.150e-5	6.079e-5
-0.593	5.111e-5	6.181e-5
-0.588	5.073e-5	6.282e-5
-0.583	5.035e-5	6.383e-5
-0.578	4.998e-5	6.483e-5
-0.573	4.961e-5	6.582e-5
-0.568	4.925e-5	6.681e-5
-0.563	4.889e-5	6.778e-5
-0.558	4.853e-5	6.876e-5
-0.553	4.818e-5	6.972e-5
-0.548	4.783e-5	7.068e-5
-0.543	4.749e-5	7.163e-5
-0.538	4.715e-5	7.257e-5
-0.533	4.683e-5	7.350e-5
-0.528	4.651e-5	7.443e-5
-0.523	4.619e-5	7.536e-5
-0.518	4.587e-5	7.628e-5
-0.513	4.556e-5	7.719e-5
-0.508	4.524e-5	7.809e-5
-0.503	4.494e-5	7.899e-5
-0.498	4.465e-5	7.988e-5
-0.493	4.436e-5	8.077e-5
-0.488	4.406e-5	8.165e-5
-0.483	4.376e-5	8.253e-5
-0.478	4.346e-5	8.340e-5
-0.473	4.317e-5	8.426e-5
-0.468	4.290e-5	8.512e-5
-0.463	4.263e-5	8.597e-5
-0.458	4.237e-5	8.682e-5
-0.453	4.211e-5	8.766e-5
-0.448	4.185e-5	8.850e-5
-0.443	4.159e-5	8.933e-5
-0.438	4.133e-5	9.016e-5
-0.433	4.108e-5	9.098e-5
-0.428	4.083e-5	9.179e-5
-0.423	4.059e-5	9.261e-5
-0.418	4.036e-5	9.341e-5
-0.413	4.013e-5	9.422e-5
-0.408	3.990e-5	9.501e-5
-0.403	3.966e-5	9.581e-5
-0.398	3.943e-5	9.660e-5
-0.393	3.920e-5	9.738e-5
-0.388	3.899e-5	9.816e-5
-0.383	3.879e-5	9.893e-5
-0.378	3.860e-5	9.971e-5
-0.373	3.841e-5	1.005e-4
-0.368	3.820e-5	1.012e-4
-0.363	3.799e-5	1.020e-4
-0.358	3.778e-5	1.028e-4
-0.353	3.758e-5	1.035e-4
-0.348	3.740e-5	1.043e-4
-0.343	3.722e-5	1.050e-4
-0.338	3.703e-5	1.057e-4
-0.333	3.685e-5	1.065e-4
-0.328	3.666e-5	1.072e-4
-0.323	3.646e-5	1.079e-4
-0.318	3.628e-5	1.087e-4
-0.313	3.611e-5	1.094e-4
-0.308	3.594e-5	1.101e-4
-0.303	3.578e-5	1.108e-4
-0.298	3.561e-5	1.115e-4
-0.293	3.544e-5	1.122e-4
-0.288	3.527e-5	1.129e-4
-0.283	3.510e-5	1.136e-4
-0.278	3.493e-5	1.143e-4
-0.273	3.477e-5	1.150e-4
-0.268	3.462e-5	1.157e-4
-0.263	3.447e-5	1.164e-4
-0.258	3.433e-5	1.171e-4
-0.253	3.418e-5	1.178e-4
-0.248	3.404e-5	1.185e-4
-0.243	3.390e-5	1.192e-4
-0.238	3.376e-5	1.198e-4
-0.233	3.362e-5	1.205e-4
-0.228	3.349e-5	1.212e-4
-0.223	3.335e-5	1.218e-4
-0.218	3.322e-5	1.225e-4
-0.213	3.309e-5	1.232e-4
-0.208	3.296e-5	1.238e-4
-0.203	3.283e-5	1.245e-4
-0.202	3.132e-5	6.264e-7
-0.207	3.071e-5	1.241e-6
-0.212	3.015e-5	1.844e-6
-0.217	2.963e-5	2.436e-6
-0.222	2.915e-5	3.019e-6
-0.227	2.871e-5	3.593e-6
-0.232	2.830e-5	4.159e-6
-0.237	2.792e-5	4.718e-6
-0.242	2.756e-5	5.269e-6
-0.247	2.721e-5	5.813e-6
-0.252	2.688e-5	6.351e-6
-0.257	2.656e-5	6.882e-6
-0.262	2.625e-5	7.407e-6
-0.267	2.594e-5	7.926e-6
-0.272	2.565e-5	8.439e-6
-0.277	2.536e-5	8.946e-6
-0.282	2.508e-5	9.447e-6
-0.287	2.482e-5	9.944e-6
-0.292	2.456e-5	1.043e-5
-0.297	2.431e-5	1.092e-5
-0.302	2.406e-5	1.140e-5
-0.307	2.382e-5	1.188e-5
-0.312	2.357e-5	1.235e-5
-0.317	2.333e-5	1.282e-5
-0.322	2.310e-5	1.328e-5
-0.327	2.287e-5	1.374e-5
-0.332	2.264e-5	1.419e-5
-0.337	2.242e-5	1.464e-5
-0.342	2.220e-5	1.508e-5
-0.347	2.198e-5	1.552e-5
-0.352	2.176e-5	1.596e-5
-0.357	2.154e-5	1.639e-5
-0.362	2.133e-5	1.681e-5
-0.367	2.112e-5	1.724e-5
-0.372	2.092e-5	1.765e-5
-0.377	2.072e-5	1.807e-5
-0.382	2.053e-5	1.848e-5
-0.387	2.033e-5	1.889e-5
-0.392	2.013e-5	1.929e-5
-0.397	1.994e-5	1.969e-5
-0.402	1.975e-5	2.008e-5
-0.407	1.957e-5	2.047e-5
-0.412	1.939e-5	2.086e-5
-0.417	1.921e-5	2.125e-5
-0.422	1.903e-5	2.163e-5
-0.427	1.884e-5	2.200e-5
-0.432	1.866e-5	2.238e-5
-0.437	1.848e-5	2.275e-5
-0.442	1.831e-5	2.311e-5
-0.447	1.814e-5	2.348e-5
-0.452	1.798e-5	2.383e-5
-0.457	1.781e-5	2.419e-5
-0.462	1.763e-5	2.454e-5
-0.467	1.746e-5	2.489e-5
-0.472	1.728e-5	2.524e-5
-0.477	1.712e-5	2.558e-5
-0.482	1.697e-5	2.592e-5
-0.487	1.682e-5	2.626e-5
-0.492	1.667e-5	2.659e-5
-0.497	1.651e-5	2.692e-5
-0.502	1.635e-5	2.725e-5
-0.507	1.620e-5	2.757e-5
-0.512	1.605e-5	2.789e-5
-0.517	1.590e-5	2.821e-5
-0.522	1.575e-5	2.853e-5
-0.527	1.561e-5	2.884e-5
-0.532	1.547e-5	2.915e-5
-0.537	1.533e-5	2.945e-5
-0.542	1.519e-5	2.976e-5
-0.547	1.505e-5	3.006e-5
-0.552	1.490e-5	3.036e-5
-0.557	1.476e-5	3.065e-5
-0.562	1.462e-5	3.094e-5
-0.567	1.449e-5	3.123e-5
-0.572	1.436e-5	3.152e-5
-0.577	1.422e-5	3.181e-5
-0.582	1.408e-5	3.209e-5
-0.587	1.394e-5	3.237e-5
-0.592	1.381e-5	3.264e-5
-0.597	1.367e-5	3.292e-5
-0.602	1.355e-5	3.319e-5
-0.607	1.342e-5	3.345e-5
-0.612	1.330e-5	3.372e-5
-0.617	1.316e-5	3.398e-5
-0.622	1.302e-5	3.424e-5
-0.627	1.289e-5	3.450e-5
-0.632	1.276e-5	3.476e-5
-0.637	1.264e-5	3.501e-5
-0.642	1.251e-5	3.526e-5
-0.647	1.238e-5	3.551e-5
-0.652	1.225e-5	3.575e-5
-0.657	1.212e-5	3.600e-5
-0.662	1.199e-5	3.624e-5
-0.667	1.186e-5	3.647e-5
-0.672	1.173e-5	3.671e-5
-0.677	1.160e-5	3.694e-5
-0.682	1.146e-5	3.717e-5
-0.687	1.132e-5	3.739e-5
-0.692	1.119e-5	3.762e-5
-0.697	1.107e-5	3.784e-5
-0.702	1.094e-5	3.806e-5
-0.707	1.081e-5	3.827e-5
-0.712	1.068e-5	3.849e-5
-0.717	1.055e-5	3.870e-5
-0.722	1.043e-5	3.891e-5
-0.727	1.032e-5	3.911e-5
-0.732	1.020e-5	3.932e-5
-0.737	1.008e-5	3.952e-5
-0.742	9.956e-6	3.972e-5
-0.747	9.832e-6	3.992e-5
-0.752	9.712e-6	4.011e-5
-0.757	9.598e-6	4.030e-5
-0.762	9.489e-6	4.049e-5
-0.767	9.382e-6	4.068e-5
-0.772	9.277e-6	4.086e-5
-0.777	9.163e-6	4.105e-5
-0.782	9.046e-6	4.123e-5
-0.787	8.932e-6	4.141e-5
-0.792	8.822e-6	4.158e-5
-0.797	8.716e-6	4.176e-5
-0.802	8.618e-6	4.193e-5
-0.807	8.510e-6	4.210e-5
-0.812	8.397e-6	4.227e-5
-0.817	8.284e-6	4.243e-5
-0.822	8.173e-6	4.260e-5
-0.827	8.071e-6	4.276e-5
-0.832	7.976e-6	4.292e-5
-0.837	7.876e-6	4.308e-5
-0.842	7.768e-6	4.323e-5
-0.847	7.652e-6	4.338e-5
-0.852	7.534e-6	4.354e-5
-0.857	7.421e-6	4.368e-5
-0.862	7.312e-6	4.383e-5
-0.867	7.202e-6	4.397e-5
-0.872	7.086e-6	4.412e-5
-0.877	6.967e-6	4.426e-5
-0.882	6.845e-6	4.439e-5
-0.887	6.724e-6	4.453e-5
-0.892	6.607e-6	4.466e-5
-0.897	6.482e-6	4.479e-5
-0.902	6.347e-6	4.492e-5
-0.907	6.209e-6	4.504e-5
-0.912	6.064e-6	4.516e-5
-0.917	5.919e-6	4.528e-5
-0.922	5.778e-6	4.539e-5
-0.927	5.630e-6	4.551e-5
-0.932	5.474e-6	4.562e-5
-0.937	5.310e-6	4.572e-5
-0.942	5.135e-6	4.583e-5
-0.947	4.967e-6	4.593e-5
-0.952	4.806e-6	4.602e-5
-0.957	4.648e-6	4.611e-5
-0.962	4.489e-6	4.620e-5
-0.967	4.321e-6	4.629e-5
-0.972	4.132e-6	4.637e-5
-0.977	3.931e-6	4.645e-5
-0.982	3.723e-6	4.653e-5
-0.987	3.515e-6	4.660e-5
-0.992	3.309e-6	4.666e-5
-0.997	3.101e-6	4.672e-5
-1.002	2.883e-6	4.678e-5
-1.007	2.646e-6	4.684e-5
-1.012	2.397e-6	4.688e-5
-1.017	2.138e-6	4.693e-5
-1.022	1.875e-6	4.696e-5
-1.027	1.614e-6	4.700e-5
-1.032	1.351e-6	4.702e-5
-1.037	1.081e-6	4.704e-5
-1.042	8.055e-7	4.706e-5
-1.047	5.166e-7	4.707e-5
-1.052	2.177e-7	4.708e-5
-1.057	-8.524e-8	4.707e-5
-1.062	-3.954e-7	4.707e-5
-1.067	-7.121e-7	4.705e-5
-1.072	-1.032e-6	4.703e-5
-1.077	-1.363e-6	4.700e-5
-1.082	-1.698e-6	4.697e-5
-1.087	-2.034e-6	4.693e-5
-1.092	-2.374e-6	4.688e-5
-1.097	-2.717e-6	4.683e-5
-1.102	-3.067e-6	4.677e-5
-1.107	-3.418e-6	4.670e-5
-1.112	-3.765e-6	4.662e-5
-1.117	-4.110e-6	4.654e-5
-1.122	-4.459e-6	4.645e-5
-1.127	-4.826e-6	4.635e-5
-1.132	-5.227e-6	4.625e-5
-1.137	-5.650e-6	4.614e-5
-1.142	-6.085e-6	4.601e-5
-1.147	-6.521e-6	4.588e-5
-1.152	-6.953e-6	4.575e-5
-1.157	-7.401e-6	4.560e-5
-1.162	-7.879e-6	4.544e-5
-1.167	-8.402e-6	4.527e-5
-1.172	-8.963e-6	4.509e-5
-1.177	-9.556e-6	4.490e-5
-1.182	-1.018e-5	4.470e-5
-1.187	-1.083e-5	4.448e-5
-1.192	-1.154e-5	4.425e-5
-1.197	-1.232e-5	4.400e-5
-1.202	-1.318e-5	4.374e-5
-1.207	-1.411e-5	4.346e-5
-1.212	-1.511e-5	4.316e-5
-1.217	-1.618e-5	4.283e-5
-1.222	-1.733e-5	4.249e-5
-1.227	-1.859e-5	4.211e-5
-1.232	-1.995e-5	4.171e-5
-1.237	-2.143e-5	4.129e-5
-1.242	-2.304e-5	4.083e-5
-1.247	-2.477e-5	4.033e-5
-1.252	-2.664e-5	3.980e-5
-1.257	-2.868e-5	3.922e-5
-1.262	-3.088e-5	3.861e-5
-1.267	-3.322e-5	3.794e-5
-1.272	-3.573e-5	3.723e-5
-1.277	-3.837e-5	3.646e-5
-1.282	-4.121e-5	3.564e-5
-1.287	-4.427e-5	3.475e-5
-1.292	-4.759e-5	3.380e-5
-1.297	-5.114e-5	3.278e-5
-1.302	-5.489e-5	3.168e-5
-1.307	-5.880e-5	3.050e-5
-1.312	-6.291e-5	2.924e-5
-1.317	-6.723e-5	2.790e-5
-1.322	-7.178e-5	2.646e-5
-1.327	-7.656e-5	2.493e-5
-1.332	-8.156e-5	2.330e-5
-1.337	-8.668e-5	2.157e-5
-1.342	-9.193e-5	1.973e-5
-1.347	-9.732e-5	1.778e-5
-1.352	-1.028e-4	1.573e-5
-1.357	-1.085e-4	1.356e-5
-1.362	-1.143e-4	1.127e-5
-1.367	-1.201e-4	8.869e-6
-1.372	-1.259e-4	6.351e-6
-1.377	-1.318e-4	3.715e-6
-1.382	-1.376e-4	9.638e-7
-1.387	-1.432e-4	-1.901e-6
-1.392	-1.487e-4	-4.876e-6
-1.397	-1.539e-4	-7.954e-6
-1.402	-1.587e-4	-1.113e-5
-1.407	-1.631e-4	-1.439e-5
-1.412	-1.672e-4	-1.773e-5
-1.417	-1.710e-4	-2.115e-5
-1.422	-1.746e-4	-2.465e-5
-1.427	-1.778e-4	-2.820e-5
-1.432	-1.808e-4	-3.182e-5
-1.437	-1.835e-4	-3.549e-5
-1.442	-1.859e-4	-3.921e-5
-1.447	-1.879e-4	-4.296e-5
-1.452	-1.896e-4	-4.676e-5
-1.457	-1.908e-4	-5.057e-5
-1.462	-1.917e-4	-5.441e-5
-1.467	-1.922e-4	-5.825e-5
-1.472	-1.923e-4	-6.210e-5
-1.477	-1.919e-4	-6.594e-5
-1.482	-1.912e-4	-6.976e-5
-1.487	-1.900e-4	-7.356e-5
-1.492	-1.884e-4	-7.733e-5
-1.497	-1.866e-4	-8.106e-5
-1.502	-1.845e-4	-8.475e-5
-1.507	-1.823e-4	-8.840e-5
-1.512	-1.800e-4	-9.200e-5
-1.517	-1.777e-4	-9.555e-5
-1.522	-1.754e-4	-9.906e-5
-1.527	-1.731e-4	-1.025e-4
-1.532	-1.708e-4	-1.059e-4
-1.537	-1.685e-4	-1.093e-4
-1.542	-1.662e-4	-1.126e-4
-1.547	-1.640e-4	-1.159e-4
-1.552	-1.618e-4	-1.192e-4
-1.557	-1.597e-4	-1.223e-4
-1.562	-1.577e-4	-1.255e-4
-1.567	-1.557e-4	-1.286e-4
-1.572	-1.538e-4	-1.317e-4
-1.577	-1.519e-4	-1.347e-4
-1.582	-1.501e-4	-1.377e-4
-1.587	-1.484e-4	-1.407e-4
-1.592	-1.467e-4	-1.436e-4
-1.597	-1.451e-4	-1.465e-4
-1.602	-1.435e-4	-1.494e-4
-1.607	-1.420e-4	-1.522e-4
-1.612	-1.405e-4	-1.551e-4
-1.617	-1.390e-4	-1.578e-4
-1.622	-1.376e-4	-1.606e-4
-1.627	-1.362e-4	-1.633e-4
-1.632	-1.349e-4	-1.660e-4
-1.637	-1.337e-4	-1.687e-4
-1.642	-1.324e-4	-1.713e-4
-1.647	-1.312e-4	-1.740e-4
-1.652	-1.300e-4	-1.766e-4
-1.657	-1.289e-4	-1.791e-4
-1.662	-1.277e-4	-1.817e-4
-1.667	-1.266e-4	-1.842e-4
-1.672	-1.256e-4	-1.867e-4
-1.677	-1.245e-4	-1.892e-4
-1.682	-1.235e-4	-1.917e-4
-1.687	-1.226e-4	-1.941e-4
-1.692	-1.217e-4	-1.966e-4
-1.697	-1.208e-4	-1.990e-4
-1.702	-1.199e-4	-2.014e-4
-1.707	-1.191e-4	-2.038e-4
-1.712	-1.183e-4	-2.061e-4
-1.717	-1.175e-4	-2.085e-4
-1.722	-1.168e-4	-2.108e-4
-1.727	-1.162e-4	-2.132e-4
-1.732	-1.156e-4	-2.155e-4
-1.737	-1.150e-4	-2.178e-4
-1.742	-1.144e-4	-2.201e-4
-1.747	-1.140e-4	-2.223e-4
-1.752	-1.135e-4	-2.246e-4
-1.757	-1.131e-4	-2.269e-4
-1.762	-1.127e-4	-2.291e-4
-1.767	-1.123e-4	-2.314e-4
-1.772	-1.120e-4	-2.336e-4
-1.777	-1.117e-4	-2.358e-4
-1.782	-1.115e-4	-2.381e-4
-1.787	-1.113e-4	-2.403e-4
-1.792	-1.112e-4	-2.425e-4
-1.797	-1.111e-4	-2.447e-4
-1.802	-1.110e-4	-2.470e-4
-1.807	-1.109e-4	-2.492e-4
-1.812	-1.108e-4	-2.514e-4
-1.817	-1.108e-4	-2.536e-4
-1.822	-1.108e-4	-2.558e-4
-1.827	-1.109e-4	-2.580e-4
-1.832	-1.110e-4	-2.603e-4
-1.837	-1.111e-4	-2.625e-4
-1.842	-1.112e-4	-2.647e-4
-1.847	-1.114e-4	-2.669e-4
-1.852	-1.116e-4	-2.692e-4
-1.857	-1.118e-4	-2.714e-4
-1.862	-1.121e-4	-2.737e-4
-1.867	-1.124e-4	-2.759e-4
-1.872	-1.127e-4	-2.782e-4
-1.877	-1.130e-4	-2.804e-4
-1.882	-1.134e-4	-2.827e-4
-1.887	-1.138e-4	-2.850e-4
-1.892	-1.142e-4	-2.872e-4
-1.897	-1.146e-4	-2.895e-4
-1.898	-1.107e-4	-2.213e-6
-1.893	-1.074e-4	-4.362e-6
-1.888	-1.045e-4	-6.451e-6
-1.883	-1.018e-4	-8.487e-6
-1.878	-9.954e-5	-1.048e-5
-1.873	-9.750e-5	-1.243e-5
-1.868	-9.562e-5	-1.434e-5
-1.863	-9.383e-5	-1.622e-5
-1.858	-9.216e-5	-1.806e-5
-1.853	-9.059e-5	-1.987e-5
-1.848	-8.910e-5	-2.165e-5
-1.843	-8.768e-5	-2.341e-5
-1.838	-8.632e-5	-2.513e-5
-1.833	-8.502e-5	-2.683e-5
-1.828	-8.375e-5	-2.851e-5
-1.823	-8.254e-5	-3.016e-5
-1.818	-8.139e-5	-3.179e-5
-1.813	-8.029e-5	-3.339e-5
-1.808	-7.922e-5	-3.498e-5
-1.803	-7.818e-5	-3.654e-5
-1.798	-7.716e-5	-3.809e-5
-1.793	-7.616e-5	-3.961e-5
-1.788	-7.520e-5	-4.111e-5
-1.783	-7.428e-5	-4.260e-5
-1.778	-7.338e-5	-4.407e-5
-1.773	-7.251e-5	-4.552e-5
-1.768	-7.166e-5	-4.695e-5
-1.763	-7.083e-5	-4.837e-5
-1.758	-7.003e-5	-4.977e-5
-1.753	-6.924e-5	-5.115e-5
-1.748	-6.846e-5	-5.252e-5
-1.743	-6.772e-5	-5.387e-5
-1.738	-6.699e-5	-5.521e-5
-1.733	-6.628e-5	-5.654e-5
-1.728	-6.558e-5	-5.785e-5
-1.723	-6.491e-5	-5.915e-5
-1.718	-6.424e-5	-6.043e-5
-1.713	-6.360e-5	-6.171e-5
-1.708	-6.296e-5	-6.297e-5
-1.703	-6.234e-5	-6.421e-5
-1.698	-6.174e-5	-6.545e-5
-1.693	-6.115e-5	-6.667e-5
-1.688	-6.057e-5	-6.788e-5
-1.683	-6.001e-5	-6.908e-5
-1.678	-5.945e-5	-7.027e-5
-1.673	-5.889e-5	-7.145e-5
-1.668	-5.834e-5	-7.262e-5
-1.663	-5.780e-5	-7.377e-5
-1.658	-5.726e-5	-7.492e-5
-1.653	-5.673e-5	-7.605e-5
-1.648	-5.620e-5	-7.718e-5
-1.643	-5.566e-5	-7.829e-5
-1.638	-5.513e-5	-7.939e-5
-1.633	-5.460e-5	-8.048e-5
-1.628	-5.407e-5	-8.156e-5
-1.623	-5.355e-5	-8.264e-5
-1.618	-5.302e-5	-8.370e-5
-1.613	-5.247e-5	-8.475e-5
-1.608	-5.192e-5	-8.578e-5
-1.603	-5.134e-5	-8.681e-5
-1.598	-5.076e-5	-8.783e-5
-1.593	-5.020e-5	-8.883e-5
-1.588	-4.963e-5	-8.982e-5
-1.583	-4.905e-5	-9.080e-5
-1.578	-4.847e-5	-9.177e-5
-1.573	-4.785e-5	-9.273e-5
-1.568	-4.721e-5	-9.367e-5
-1.563	-4.657e-5	-9.461e-5
-1.558	-4.592e-5	-9.552e-5
-1.553	-4.527e-5	-9.643e-5
-1.548	-4.462e-5	-9.732e-5
-1.543	-4.395e-5	-9.820e-5
-1.538	-4.326e-5	-9.907e-5
-1.533	-4.255e-5	-9.992e-5
-1.528	-4.184e-5	-1.008e-4
-1.523	-4.112e-5	-1.016e-4
-1.518	-4.038e-5	-1.024e-4
-1.513	-3.962e-5	-1.032e-4
-1.508	-3.884e-5	-1.040e-4
-1.503	-3.805e-5	-1.047e-4
-1.498	-3.725e-5	-1.055e-4
-1.493	-3.644e-5	-1.062e-4
-1.488	-3.562e-5	-1.069e-4
-1.483	-3.477e-5	-1.076e-4
-1.478	-3.390e-5	-1.083e-4
-1.473	-3.302e-5	-1.089e-4
-1.468	-3.212e-5	-1.096e-4
-1.463	-3.120e-5	-1.102e-4
-1.458	-3.028e-5	-1.108e-4
-1.453	-2.933e-5	-1.114e-4
-1.448	-2.835e-5	-1.120e-4
-1.443	-2.737e-5	-1.125e-4
-1.438	-2.637e-5	-1.130e-4
-1.433	-2.535e-5	-1.135e-4
-1.428	-2.434e-5	-1.140e-4
-1.423	-2.331e-5	-1.145e-4
-1.418	-2.227e-5	-1.149e-4
-1.413	-2.123e-5	-1.154e-4
-1.408	-2.018e-5	-1.158e-4
-1.403	-1.912e-5	-1.162e-4
-1.398	-1.808e-5	-1.165e-4
-1.393	-1.704e-5	-1.169e-4
-1.388	-1.602e-5	-1.172e-4
-1.383	-1.503e-5	-1.175e-4
-1.378	-1.407e-5	-1.178e-4
-1.373	-1.312e-5	-1.180e-4
-1.368	-1.216e-5	-1.183e-4
-1.363	-1.120e-5	-1.185e-4
-1.358	-1.025e-5	-1.187e-4
-1.353	-9.323e-6	-1.189e-4
-1.348	-8.430e-6	-1.190e-4
-1.343	-7.556e-6	-1.192e-4
-1.338	-6.701e-6	-1.193e-4
-1.333	-5.871e-6	-1.194e-4
-1.328	-5.062e-6	-1.195e-4
-1.323	-4.281e-6	-1.196e-4
-1.318	-3.527e-6	-1.197e-4
-1.313	-2.786e-6	-1.198e-4
-1.308	-2.062e-6	-1.198e-4
-1.303	-1.348e-6	-1.198e-4
-1.298	-6.381e-7	-1.198e-4
-1.293	5.875e-8	-1.198e-4
-1.288	7.389e-7	-1.198e-4
-1.283	1.417e-6	-1.198e-4
-1.278	2.088e-6	-1.198e-4
-1.273	2.757e-6	-1.197e-4
-1.268	3.440e-6	-1.196e-4
-1.263	4.137e-6	-1.195e-4
-1.258	4.851e-6	-1.195e-4
-1.253	5.600e-6	-1.193e-4
-1.248	6.375e-6	-1.192e-4
-1.243	7.184e-6	-1.191e-4
-1.238	8.044e-6	-1.189e-4
-1.233	8.960e-6	-1.187e-4
-1.228	9.933e-6	-1.185e-4
-1.223	1.099e-5	-1.183e-4
-1.218	1.213e-5	-1.181e-4
-1.213	1.335e-5	-1.178e-4
-1.208	1.467e-5	-1.175e-4
-1.203	1.610e-5	-1.172e-4
-1.198	1.764e-5	-1.168e-4
-1.193	1.931e-5	-1.164e-4
-1.188	2.113e-5	-1.160e-4
-1.183	2.310e-5	-1.156e-4
-1.178	2.523e-5	-1.151e-4
-1.173	2.754e-5	-1.145e-4
-1.168	3.000e-5	-1.139e-4
-1.163	3.263e-5	-1.133e-4
-1.158	3.546e-5	-1.125e-4
-1.153	3.845e-5	-1.118e-4
-1.148	4.164e-5	-1.109e-4
-1.143	4.502e-5	-1.100e-4
-1.138	4.857e-5	-1.091e-4
-1.133	5.231e-5	-1.080e-4
-1.128	5.621e-5	-1.069e-4
-1.123	6.023e-5	-1.057e-4
-1.118	6.439e-5	-1.044e-4
-1.113	6.869e-5	-1.030e-4
-1.108	7.305e-5	-1.016e-4
-1.103	7.751e-5	-1.000e-4
-1.098	8.202e-5	-9.838e-5
-1.093	8.652e-5	-9.665e-5
-1.088	9.102e-5	-9.483e-5
-1.083	9.550e-5	-9.292e-5
-1.078	9.986e-5	-9.092e-5
-1.073	1.041e-4	-8.884e-5
-1.068	1.082e-4	-8.668e-5
-1.063	1.121e-4	-8.444e-5
-1.058	1.158e-4	-8.212e-5
-1.053	1.192e-4	-7.974e-5
-1.048	1.223e-4	-7.729e-5
-1.043	1.251e-4	-7.479e-5
-1.038	1.276e-4	-7.224e-5
-1.033	1.297e-4	-6.964e-5
-1.028	1.314e-4	-6.701e-5
-1.023	1.328e-4	-6.436e-5
-1.018	1.338e-4	-6.168e-5
-1.013	1.344e-4	-5.899e-5
-1.008	1.348e-4	-5.630e-5
-1.003	1.347e-4	-5.360e-5
-0.998	1.344e-4	-5.092e-5
-0.993	1.337e-4	-4.824e-5
-0.988	1.328e-4	-4.559e-5
-0.983	1.317e-4	-4.295e-5
-0.978	1.303e-4	-4.035e-5
-0.973	1.288e-4	-3.777e-5
-0.968	1.272e-4	-3.523e-5
-0.963	1.254e-4	-3.272e-5
-0.958	1.236e-4	-3.025e-5
-0.953	1.217e-4	-2.781e-5
-0.948	1.198e-4	-2.542e-5
-0.943	1.179e-4	-2.306e-5
-0.938	1.159e-4	-2.074e-5
-0.933	1.140e-4	-1.846e-5
-0.928	1.121e-4	-1.622e-5
-0.923	1.102e-4	-1.402e-5
-0.918	1.083e-4	-1.185e-5
-0.913	1.065e-4	-9.719e-6
-0.908	1.047e-4	-7.624e-6
-0.903	1.030e-4	-5.564e-6
-0.898	1.013e-4	-3.538e-6
-0.893	9.970e-5	-1.543e-6
-0.888	9.811e-5	4.188e-7
-0.883	9.656e-5	2.350e-6
-0.878	9.506e-5	4.251e-6
-0.873	9.359e-5	6.123e-6
-0.868	9.218e-5	7.967e-6
-0.863	9.082e-5	9.783e-6
-0.858	8.949e-5	1.157e-5
-0.853	8.819e-5	1.334e-5
-0.848	8.692e-5	1.507e-5
-0.843	8.568e-5	1.679e-5
-0.838	8.447e-5	1.848e-5
-0.833	8.329e-5	2.014e-5
-0.828	8.215e-5	2.179e-5
-0.823	8.103e-5	2.341e-5
-0.818	7.994e-5	2.501e-5
-0.813	7.887e-5	2.658e-5
-0.808	7.781e-5	2.814e-5
-0.803	7.678e-5	2.968e-5
-0.798	7.577e-5	3.119e-5
-0.793	7.479e-5	3.269e-5
-0.788	7.384e-5	3.416e-5
-0.783	7.292e-5	3.562e-5
-0.778	7.201e-5	3.706e-5
-0.773	7.113e-5	3.848e-5
-0.768	7.025e-5	3.989e-5
-0.763	6.939e-5	4.128e-5
-0.758	6.856e-5	4.265e-5
-0.753	6.774e-5	4.400e-5
-0.748	6.695e-5	4.534e-5
-0.743	6.619e-5	4.667e-5
-0.738	6.545e-5	4.798e-5
-0.733	6.473e-5	4.927e-5
-0.728	6.403e-5	5.055e-5
-0.723	6.334e-5	5.182e-5
-0.718	6.267e-5	5.307e-5
-0.713	6.202e-5	5.431e-5
-0.708	6.139e-5	5.554e-5
-0.703	6.078e-5	5.675e-5
-0.698	6.019e-5	5.796e-5
-0.693	5.960e-5	5.915e-5
-0.688	5.903e-5	6.033e-5
-0.683	5.848e-5	6.150e-5
-0.678	5.793e-5	6.266e-5
-0.673	5.741e-5	6.381e-5
-0.668	5.690e-5	6.495e-5
-0.663	5.641e-5	6.607e-5
-0.658	5.592e-5	6.719e-5
-0.653	5.545e-5	6.830e-5
-0.648	5.497e-5	6.940e-5
-0.643	5.450e-5	7.049e-5
-0.638	5.404e-5	7.157e-5
-0.633	5.360e-5	7.264e-5
-0.628	5.316e-5	7.371e-5
-0.623	5.274e-5	7.476e-5
-0.618	5.232e-5	7.581e-5
-0.613	5.190e-5	7.685e-5
-0.608	5.148e-5	7.788e-5
-0.603	5.106e-5	7.890e-5
-0.598	5.065e-5	7.991e-5
-0.593	5.026e-5	8.092e-5
-0.588	4.988e-5	8.191e-5
-0.583	4.950e-5	8.290e-5
-0.578	4.913e-5	8.389e-5
-0.573	4.875e-5	8.486e-5
-0.568	4.837e-5	8.583e-5
-0.563	4.800e-5	8.679e-5
-0.558	4.764e-5	8.774e-5
-0.553	4.729e-5	8.869e-5
-0.548	4.695e-5	8.963e-5
-0.543	4.661e-5	9.056e-5
-0.538	4.627e-5	9.148e-5
-0.533	4.593e-5	9.240e-5
-0.528	4.559e-5	9.331e-5
-0.523	4.526e-5	9.422e-5
-0.518	4.495e-5	9.512e-5
-0.513	4.464e-5	9.601e-5
-0.508	4.433e-5	9.690e-5
-0.503	4.402e-5	9.778e-5
-0.498	4.373e-5	9.865e-5
-0.493	4.343e-5	9.952e-5
-0.488	4.314e-5	1.004e-4
-0.483	4.286e-5	1.012e-4
-0.478	4.258e-5	1.021e-4
-0.473	4.231e-5	1.029e-4
-0.468	4.204e-5	1.038e-4
-0.463	4.178e-5	1.046e-4
-0.458	4.152e-5	1.054e-4
-0.453	4.126e-5	1.063e-4
-0.448	4.101e-5	1.071e-4
-0.443	4.077e-5	1.079e-4
-0.438	4.053e-5	1.087e-4
-0.433	4.031e-5	1.095e-4
-0.428	4.009e-5	1.103e-4
-0.423	3.987e-5	1.111e-4
-0.418	3.964e-5	1.119e-4
-0.413	3.943e-5	1.127e-4
-0.408	3.922e-5	1.135e-4
-0.403	3.901e-5	1.143e-4
-0.398	3.881e-5	1.150e-4
-0.393	3.861e-5	1.158e-4
-0.388	3.842e-5	1.166e-4
-0.383	3.823e-5	1.173e-4
-0.378	3.805e-5	1.181e-4
-0.373	3.787e-5	1.189e-4
-0.368	3.769e-5	1.196e-4
-0.363	3.751e-5	1.204e-4
-0.358	3.733e-5	1.211e-4
-0.353	3.716e-5	1.219e-4
-0.348	3.699e-5	1.226e-4
-0.343	3.682e-5	1.233e-4
-0.338	3.666e-5	1.241e-4
-0.333	3.651e-5	1.248e-4
-0.328	3.635e-5	1.255e-4
-0.323	3.620e-5	1.263e-4
-0.318	3.604e-5	1.270e-4
-0.313	3.589e-5	1.277e-4
-0.308	3.574e-5	1.284e-4
-0.303	3.559e-5	1.291e-4
-0.298	3.545e-5	1.298e-4
-0.293	3.530e-5	1.305e-4
-0.288	3.517e-5	1.312e-4
-0.283	3.503e-5	1.319e-4
-0.278	3.489e-5	1.326e-4
-0.273	3.475e-5	1.333e-4
-0.268	3.461e-5	1.340e-4
-0.263	3.448e-5	1.347e-4
-0.258	3.435e-5	1.354e-4
-0.253	3.422e-5	1.361e-4
-0.248	3.410e-5	1.368e-4
-0.243	3.398e-5	1.374e-4
-0.238	3.386e-5	1.381e-4
-0.233	3.375e-5	1.388e-4
-0.228	3.364e-5	1.395e-4
-0.223	3.354e-5	1.401e-4
-0.218	3.343e-5	1.408e-4
-0.213	3.333e-5	1.415e-4
-0.208	3.322e-5	1.421e-4
-0.203	3.311e-5	1.428e-4
-0.202	3.168e-5	6.336e-7
-0.207	3.111e-5	1.256e-6
-0.212	3.058e-5	1.867e-6
-0.217	3.009e-5	2.469e-6
-0.222	2.965e-5	3.062e-6
-0.227	2.925e-5	3.647e-6
-0.232	2.888e-5	4.225e-6
-0.237	2.853e-5	4.795e-6
-0.242	2.820e-5	5.359e-6
-0.247	2.789e-5	5.917e-6
-0.252	2.759e-5	6.469e-6
-0.257	2.729e-5	7.015e-6
-0.262	2.701e-5	7.555e-6
-0.267	2.673e-5	8.089e-6
-0.272	2.647e-5	8.619e-6
-0.277	2.623e-5	9.144e-6
-0.282	2.599e-5	9.663e-6
-0.287	2.577e-5	1.018e-5
-0.292	2.554e-5	1.069e-5
-0.297	2.532e-5	1.120e-5
-0.302	2.510e-5	1.170e-5
-0.307	2.489e-5	1.220e-5
-0.312	2.468e-5	1.269e-5
-0.317	2.448e-5	1.318e-5
-0.322	2.429e-5	1.366e-5
-0.327	2.410e-5	1.415e-5
-0.332	2.392e-5	1.463e-5
-0.337	2.374e-5	1.510e-5
-0.342	2.356e-5	1.557e-5
-0.347	2.339e-5	1.604e-5
-0.352	2.322e-5	1.650e-5
-0.357	2.305e-5	1.696e-5
-0.362	2.289e-5	1.742e-5
-0.367	2.272e-5	1.788e-5
-0.372	2.255e-5	1.833e-5
-0.377	2.238e-5	1.878e-5
-0.382	2.223e-5	1.922e-5
-0.387	2.207e-5	1.966e-5
-0.392	2.193e-5	2.010e-5
-0.397	2.179e-5	2.054e-5
-0.402	2.164e-5	2.097e-5
-0.407	2.149e-5	2.140e-5
-0.412	2.134e-5	2.182e-5
-0.417	2.119e-5	2.225e-5
-0.422	2.105e-5	2.267e-5
-0.427	2.091e-5	2.309e-5
-0.432	2.077e-5	2.350e-5
-0.437	2.065e-5	2.392e-5
-0.442	2.051e-5	2.433e-5
-0.447	2.038e-5	2.473e-5
-0.452	2.025e-5	2.514e-5
-0.457	2.012e-5	2.554e-5
-0.462	1.999e-5	2.594e-5
-0.467	1.987e-5	2.634e-5
-0.472	1.974e-5	2.673e-5
-0.477	1.961e-5	2.713e-5
-0.482	1.949e-5	2.752e-5
-0.487	1.936e-5	2.790e-5
-0.492	1.923e-5	2.829e-5
-0.497	1.910e-5	2.867e-5
-0.502	1.897e-5	2.905e-5
-0.507	1.885e-5	2.943e-5
-0.512	1.874e-5	2.980e-5
-0.517	1.863e-5	3.017e-5
-0.522	1.852e-5	3.054e-5
-0.527	1.840e-5	3.091e-5
-0.532	1.828e-5	3.128e-5
-0.537	1.817e-5	3.164e-5
-0.542	1.807e-5	3.200e-5
-0.547	1.797e-5	3.236e-5
-0.552	1.788e-5	3.272e-5
-0.557	1.778e-5	3.307e-5
-0.562	1.769e-5	3.343e-5
-0.567	1.759e-5	3.378e-5
-0.572	1.750e-5	3.413e-5
-0.577	1.741e-5	3.448e-5
-0.582	1.732e-5	3.482e-5
-0.587	1.724e-5	3.517e-5
-0.592	1.717e-5	3.551e-5
-0.597	1.710e-5	3.585e-5
-0.602	1.702e-5	3.620e-5
-0.607	1.694e-5	3.653e-5
-0.612	1.686e-5	3.687e-5
-0.617	1.678e-5	3.721e-5
-0.622	1.670e-5	3.754e-5
-0.627	1.662e-5	3.787e-5
-0.632	1.654e-5	3.820e-5
-0.637	1.645e-5	3.853e-5
-0.642	1.637e-5	3.886e-5
-0.647	1.629e-5	3.919e-5
-0.652	1.622e-5	3.951e-5
-0.657	1.615e-5	3.983e-5
-0.662	1.608e-5	4.016e-5
-0.667	1.601e-5	4.048e-5
-0.672	1.593e-5	4.079e-5
-0.677	1.585e-5	4.111e-5
-0.682	1.578e-5	4.143e-5
-0.687	1.570e-5	4.174e-5
-0.692	1.563e-5	4.205e-5
-0.697	1.556e-5	4.236e-5
-0.702	1.549e-5	4.267e-5
-0.707	1.542e-5	4.298e-5
-0.712	1.535e-5	4.329e-5
-0.717	1.528e-5	4.360e-5
-0.722	1.522e-5	4.390e-5
-0.727	1.515e-5	4.420e-5
-0.732	1.509e-5	4.450e-5
-0.737	1.502e-5	4.480e-5
-0.742	1.496e-5	4.510e-5
-0.747	1.488e-5	4.540e-5
-0.752	1.481e-5	4.570e-5
-0.757	1.474e-5	4.599e-5
-0.762	1.467e-5	4.629e-5
-0.767	1.461e-5	4.658e-5
-0.772	1.454e-5	4.687e-5
-0.777	1.447e-5	4.716e-5
-0.782	1.439e-5	4.745e-5
-0.787	1.432e-5	4.773e-5
-0.792	1.425e-5	4.802e-5
-0.797	1.419e-5	4.830e-5
-0.802	1.412e-5	4.858e-5
-0.807	1.406e-5	4.887e-5
-0.812	1.400e-5	4.915e-5
-0.817	1.393e-5	4.942e-5
-0.822	1.387e-5	4.970e-5
-0.827	1.381e-5	4.998e-5
-0.832	1.376e-5	5.025e-5
-0.837	1.370e-5	5.053e-5
-0.842	1.364e-5	5.080e-5
-0.847	1.357e-5	5.107e-5
-0.852	1.350e-5	5.134e-5
-0.857	1.343e-5	5.161e-5
-0.862	1.337e-5	5.188e-5
-0.867	1.331e-5	5.214e-5
-0.872	1.325e-5	5.241e-5
-0.877	1.319e-5	5.267e-5
-0.882	1.313e-5	5.293e-5
-0.887	1.306e-5	5.320e-5
-0.892	1.300e-5	5.346e-5
-0.897	1.293e-5	5.371e-5
-0.902	1.286e-5	5.397e-5
-0.907	1.278e-5	5.423e-5
-0.912	1.269e-5	5.448e-5
-0.917	1.260e-5	5.473e-5
-0.922	1.252e-5	5.498e-5
-0.927	1.242e-5	5.523e-5
-0.932	1.233e-5	5.548e-5
-0.937	1.222e-5	5.572e-5
-0.942	1.211e-5	5.596e-5
-0.947	1.198e-5	5.620e-5
-0.952	1.185e-5	5.644e-5
-0.957	1.170e-5	5.668e-5
-0.962	1.155e-5	5.691e-5
-0.967	1.140e-5	5.713e-5
-0.972	1.123e-5	5.736e-5
-0.977	1.107e-5	5.758e-5
-0.982	1.090e-5	5.780e-5
-0.987	1.072e-5	5.801e-5
-0.992	1.052e-5	5.822e-5
-0.997	1.030e-5	5.843e-5
-1.002	1.008e-5	5.863e-5
-1.007	9.842e-6	5.883e-5
-1.012	9.608e-6	5.902e-5
-1.017	9.360e-6	5.921e-5
-1.022	9.105e-6	5.939e-5
-1.027	8.840e-6	5.957e-5
-1.032	8.559e-6	5.974e-5
-1.037	8.267e-6	5.990e-5
-1.042	7.971e-6	6.006e-5
-1.047	7.661e-6	6.021e-5
-1.052	7.348e-6	6.036e-5
-1.057	7.034e-6	6.050e-5
-1.062	6.708e-6	6.064e-5
-1.067	6.374e-6	6.076e-5
-1.072	6.037e-6	6.089e-5
-1.077	5.684e-6	6.100e-5
-1.082	5.327e-6	6.111e-5
-1.087	4.967e-6	6.120e-5
-1.092	4.596e-6	6.130e-5
-1.097	4.223e-6	6.138e-5
-1.102	3.851e-6	6.146e-5
-1.107	3.466e-6	6.153e-5
-1.112	3.078e-6	6.159e-5
-1.117	2.681e-6	6.164e-5
-1.122	2.266e-6	6.169e-5
-1.127	1.851e-6	6.172e-5
-1.132	1.433e-6	6.175e-5
-1.137	1.000e-6	6.177e-5
-1.142	5.608e-7	6.178e-5
-1.147	1.039e-7	6.179e-5
-1.152	-3.749e-7	6.178e-5
-1.157	-8.598e-7	6.176e-5
-1.162	-1.363e-6	6.173e-5
-1.167	-1.895e-6	6.170e-5
-1.172	-2.454e-6	6.165e-5
-1.177	-3.049e-6	6.159e-5
-1.182	-3.686e-6	6.151e-5
-1.187	-4.359e-6	6.143e-5
-1.192	-5.073e-6	6.132e-5
-1.197	-5.843e-6	6.121e-5
-1.202	-6.661e-6	6.107e-5
-1.207	-7.538e-6	6.092e-5
-1.212	-8.488e-6	6.075e-5
-1.217	-9.506e-6	6.056e-5
-1.222	-1.060e-5	6.035e-5
-1.227	-1.180e-5	6.012e-5
-1.232	-1.308e-5	5.985e-5
-1.237	-1.447e-5	5.956e-5
-1.242	-1.598e-5	5.925e-5
-1.247	-1.760e-5	5.889e-5
-1.252	-1.934e-5	5.851e-5
-1.257	-2.121e-5	5.808e-5
-1.262	-2.320e-5	5.762e-5
-1.267	-2.535e-5	5.711e-5
-1.272	-2.768e-5	5.656e-5
-1.277	-3.018e-5	5.595e-5
-1.282	-3.286e-5	5.530e-5
-1.287	-3.572e-5	5.458e-5
-1.292	-3.873e-5	5.381e-5
-1.297	-4.193e-5	5.297e-5
-1.302	-4.533e-5	5.206e-5
-1.307	-4.891e-5	5.108e-5
-1.312	-5.270e-5	5.003e-5
-1.317	-5.668e-5	4.890e-5
-1.322	-6.082e-5	4.768e-5
-1.327	-6.515e-5	4.638e-5
-1.332	-6.968e-5	4.498e-5
-1.337	-7.436e-5	4.350e-5
-1.342	-7.920e-5	4.191e-5
-1.347	-8.417e-5	4.023e-5
-1.352	-8.921e-5	3.845e-5
-1.357	-9.434e-5	3.656e-5
-1.362	-9.958e-5	3.457e-5
-1.367	-1.048e-4	3.247e-5
-1.372	-1.101e-4	3.027e-5
-1.377	-1.154e-4	2.796e-5
-1.382	-1.206e-4	2.555e-5
-1.387	-1.258e-4	2.303e-5
-1.392	-1.308e-4	2.041e-5
-1.397	-1.356e-4	1.770e-5
-1.402	-1.402e-4	1.490e-5
-1.407	-1.444e-4	1.201e-5
-1.412	-1.483e-4	9.045e-6
-1.417	-1.520e-4	6.004e-6
-1.422	-1.556e-4	2.893e-6
-1.427	-1.588e-4	-2.832e-7
-1.432	-1.618e-4	-3.520e-6
-1.437	-1.646e-4	-6.811e-6
-1.442	-1.670e-4	-1.015e-5
-1.447	-1.691e-4	-1.353e-5
-1.452	-1.708e-4	-1.695e-5
-1.457	-1.722e-4	-2.039e-5
-1.462	-1.732e-4	-2.386e-5
-1.467	-1.739e-4	-2.734e-5
-1.472	-1.742e-4	-3.082e-5
-1.477	-1.741e-4	-3.430e-5
-1.482	-1.738e-4	-3.778e-5
-1.487	-1.731e-4	-4.124e-5
-1.492	-1.721e-4	-4.468e-5
-1.497	-1.710e-4	-4.810e-5
-1.502	-1.698e-4	-5.150e-5
-1.507	-1.685e-4	-5.487e-5
-1.512	-1.671e-4	-5.821e-5
-1.517	-1.656e-4	-6.152e-5
-1.522	-1.641e-4	-6.480e-5
-1.527	-1.625e-4	-6.805e-5
-1.532	-1.608e-4	-7.127e-5
-1.537	-1.592e-4	-7.445e-5
-1.542	-1.576e-4	-7.760e-5
-1.547	-1.559e-4	-8.072e-5
-1.552	-1.542e-4	-8.381e-5
-1.557	-1.526e-4	-8.686e-5
-1.562	-1.509e-4	-8.987e-5
-1.567	-1.492e-4	-9.286e-5
-1.572	-1.476e-4	-9.581e-5
-1.577	-1.460e-4	-9.873e-5
-1.582	-1.444e-4	-1.016e-4
-1.587	-1.429e-4	-1.045e-4
-1.592	-1.414e-4	-1.073e-4
-1.597	-1.399e-4	-1.101e-4
-1.602	-1.384e-4	-1.129e-4
-1.607	-1.370e-4	-1.156e-4
-1.612	-1.357e-4	-1.183e-4
-1.617	-1.344e-4	-1.210e-4
-1.622	-1.331e-4	-1.237e-4
-1.627	-1.319e-4	-1.263e-4
-1.632	-1.308e-4	-1.289e-4
-1.637	-1.297e-4	-1.315e-4
-1.642	-1.287e-4	-1.341e-4
-1.647	-1.277e-4	-1.366e-4
-1.652	-1.267e-4	-1.392e-4
-1.657	-1.259e-4	-1.417e-4
-1.662	-1.250e-4	-1.442e-4
-1.667	-1.242e-4	-1.467e-4
-1.672	-1.235e-4	-1.492e-4
-1.677	-1.228e-4	-1.516e-4
-1.682	-1.222e-4	-1.541e-4
-1.687	-1.215e-4	-1.565e-4
-1.692	-1.210e-4	-1.589e-4
-1.697	-1.204e-4	-1.613e-4
-1.702	-1.199e-4	-1.637e-4
-1.707	-1.194e-4	-1.661e-4
-1.712	-1.190e-4	-1.685e-4
-1.717	-1.186e-4	-1.709e-4
-1.722	-1.182e-4	-1.732e-4
-1.727	-1.179e-4	-1.756e-4
-1.732	-1.175e-4	-1.779e-4
-1.737	-1.172e-4	-1.803e-4
-1.742	-1.170e-4	-1.826e-4
-1.747	-1.167e-4	-1.849e-4
-1.752	-1.165e-4	-1.873e-4
-1.757	-1.163e-4	-1.896e-4
-1.762	-1.160e-4	-1.919e-4
-1.767	-1.159e-4	-1.942e-4
-1.772	-1.157e-4	-1.966e-4
-1.777	-1.156e-4	-1.989e-4
-1.782	-1.155e-4	-2.012e-4
-1.787	-1.154e-4	-2.035e-4
-1.792	-1.153e-4	-2.058e-4
-1.797	-1.152e-4	-2.081e-4
-1.802	-1.152e-4	-2.104e-4
-1.807	-1.152e-4	-2.127e-4
-1.812	-1.152e-4	-2.150e-4
-1.817	-1.153e-4	-2.173e-4
-1.822	-1.154e-4	-2.196e-4
-1.827	-1.155e-4	-2.219e-4
-1.832	-1.156e-4	-2.242e-4
-1.837	-1.157e-4	-2.265e-4
-1.842	-1.159e-4	-2.289e-4
-1.847	-1.162e-4	-2.312e-4
-1.852	-1.165e-4	-2.335e-4
-1.857	-1.168e-4	-2.359e-4
-1.862	-1.172e-4	-2.382e-4
-1.867	-1.175e-4	-2.406e-4
-1.872	-1.179e-4	-2.429e-4
-1.877	-1.184e-4	-2.453e-4
-1.882	-1.189e-4	-2.477e-4
-1.887	-1.194e-4	-2.500e-4
-1.892	-1.200e-4	-2.524e-4
-1.897	-1.206e-4	-2.549e-4
-1.898	-1.156e-4	-2.313e-6
-1.893	-1.128e-4	-4.569e-6
-1.888	-1.102e-4	-6.773e-6
-1.883	-1.078e-4	-8.930e-6
-1.878	-1.058e-4	-1.105e-5
-1.873	-1.039e-4	-1.312e-5
-1.868	-1.022e-4	-1.517e-5
-1.863	-1.006e-4	-1.718e-5
-1.858	-9.904e-5	-1.916e-5
-1.853	-9.757e-5	-2.111e-5
-1.848	-9.617e-5	-2.303e-5
-1.843	-9.482e-5	-2.493e-5
-1.838	-9.355e-5	-2.680e-5
-1.833	-9.234e-5	-2.865e-5
-1.828	-9.119e-5	-3.047e-5
-1.823	-9.009e-5	-3.227e-5
-1.818	-8.904e-5	-3.405e-5
-1.813	-8.800e-5	-3.581e-5
-1.808	-8.699e-5	-3.755e-5
-1.803	-8.600e-5	-3.927e-5
-1.798	-8.505e-5	-4.098e-5
-1.793	-8.413e-5	-4.266e-5
-1.788	-8.325e-5	-4.432e-5
-1.783	-8.238e-5	-4.597e-5
-1.778	-8.154e-5	-4.760e-5
-1.773	-8.071e-5	-4.922e-5
-1.768	-7.990e-5	-5.081e-5
-1.763	-7.912e-5	-5.240e-5
-1.758	-7.834e-5	-5.396e-5
-1.753	-7.757e-5	-5.551e-5
-1.748	-7.681e-5	-5.705e-5
-1.743	-7.606e-5	-5.857e-5
-1.738	-7.531e-5	-6.008e-5
-1.733	-7.458e-5	-6.157e-5
-1.728	-7.387e-5	-6.305e-5
-1.723	-7.317e-5	-6.451e-5
-1.718	-7.249e-5	-6.596e-5
-1.713	-7.181e-5	-6.740e-5
-1.708	-7.113e-5	-6.882e-5
-1.703	-7.045e-5	-7.023e-5
-1.698	-6.978e-5	-7.162e-5
-1.693	-6.910e-5	-7.301e-5
-1.688	-6.843e-5	-7.437e-5
-1.683	-6.777e-5	-7.573e-5
-1.678	-6.711e-5	-7.707e-5
-1.673	-6.646e-5	-7.840e-5
-1.668	-6.581e-5	-7.972e-5
-1.663	-6.517e-5	-8.102e-5
-1.658	-6.453e-5	-8.231e-5
-1.653	-6.388e-5	-8.359e-5
-1.648	-6.324e-5	-8.485e-5
-1.643	-6.261e-5	-8.611e-5
-1.638	-6.199e-5	-8.735e-5
-1.633	-6.137e-5	-8.857e-5
-1.628	-6.075e-5	-8.979e-5
-1.623	-6.014e-5	-9.099e-5
-1.618	-5.952e-5	-9.218e-5
-1.613	-5.891e-5	-9.336e-5
-1.608	-5.831e-5	-9.453e-5
-1.603	-5.771e-5	-9.568e-5
-1.598	-5.711e-5	-9.682e-5
-1.593	-5.652e-5	-9.795e-5
-1.588	-5.592e-5	-9.907e-5
-1.583	-5.532e-5	-1.002e-4
-1.578	-5.472e-5	-1.013e-4
-1.573	-5.411e-5	-1.024e-4
-1.568	-5.350e-5	-1.034e-4
-1.563	-5.290e-5	-1.045e-4
-1.558	-5.228e-5	-1.055e-4
-1.553	-5.167e-5	-1.066e-4
-1.548	-5.106e-5	-1.076e-4
-1.543	-5.043e-5	-1.086e-4
-1.538	-4.979e-5	-1.096e-4
-1.533	-4.915e-5	-1.106e-4
-1.528	-4.849e-5	-1.115e-4
-1.523	-4.783e-5	-1.125e-4
-1.518	-4.715e-5	-1.134e-4
-1.513	-4.645e-5	-1.144e-4
-1.508	-4.575e-5	-1.153e-4
-1.503	-4.501e-5	-1.162e-4
-1.498	-4.426e-5	-1.171e-4
-1.493	-4.348e-5	-1.179e-4
-1.488	-4.268e-5	-1.188e-4
-1.483	-4.186e-5	-1.196e-4
-1.478	-4.102e-5	-1.204e-4
-1.473	-4.015e-5	-1.213e-4
-1.468	-3.925e-5	-1.220e-4
-1.463	-3.831e-5	-1.228e-4
-1.458	-3.734e-5	-1.236e-4
-1.453	-3.635e-5	-1.243e-4
-1.448	-3.533e-5	-1.250e-4
-1.443	-3.428e-5	-1.257e-4
-1.438	-3.321e-5	-1.263e-4
-1.433	-3.211e-5	-1.270e-4
-1.428	-3.098e-5	-1.276e-4
-1.423	-2.983e-5	-1.282e-4
-1.418	-2.868e-5	-1.288e-4
-1.413	-2.752e-5	-1.293e-4
-1.408	-2.635e-5	-1.298e-4
-1.403	-2.517e-5	-1.303e-4
-1.398	-2.397e-5	-1.308e-4
-1.393	-2.277e-5	-1.313e-4
-1.388	-2.157e-5	-1.317e-4
-1.383	-2.036e-5	-1.321e-4
-1.378	-1.918e-5	-1.325e-4
-1.373	-1.801e-5	-1.329e-4
-1.368	-1.684e-5	-1.332e-4
-1.363	-1.570e-5	-1.335e-4
-1.358	-1.459e-5	-1.338e-4
-1.353	-1.349e-5	-1.341e-4
-1.348	-1.241e-5	-1.343e-4
-1.343	-1.136e-5	-1.346e-4
-1.338	-1.032e-5	-1.348e-4
-1.333	-9.304e-6	-1.349e-4
-1.328	-8.311e-6	-1.351e-4
-1.323	-7.345e-6	-1.353e-4
-1.318	-6.408e-6	-1.354e-4
-1.313	-5.497e-6	-1.355e-4
-1.308	-4.606e-6	-1.356e-4
-1.303	-3.727e-6	-1.357e-4
-1.298	-2.872e-6	-1.357e-4
-1.293	-2.034e-6	-1.358e-4
-1.288	-1.218e-6	-1.358e-4
-1.283	-4.201e-7	-1.358e-4
-1.278	3.739e-7	-1.358e-4
-1.273	1.170e-6	-1.358e-4
-1.268	1.966e-6	-1.357e-4
-1.263	2.769e-6	-1.357e-4
-1.258	3.584e-6	-1.356e-4
-1.253	4.414e-6	-1.355e-4
-1.248	5.262e-6	-1.354e-4
-1.243	6.139e-6	-1.353e-4
-1.238	7.045e-6	-1.351e-4
-1.233	7.991e-6	-1.350e-4
-1.228	9.000e-6	-1.348e-4
-1.223	1.007e-5	-1.346e-4
-1.218	1.121e-5	-1.344e-4
-1.213	1.243e-5	-1.341e-4
-1.208	1.373e-5	-1.338e-4
-1.203	1.512e-5	-1.335e-4
-1.198	1.662e-5	-1.332e-4
-1.193	1.824e-5	-1.328e-4
-1.188	1.999e-5	-1.324e-4
-1.183	2.188e-5	-1.320e-4
-1.178	2.392e-5	-1.315e-4
-1.173	2.609e-5	-1.310e-4
-1.168	2.843e-5	-1.304e-4
-1.163	3.095e-5	-1.298e-4
-1.158	3.364e-5	-1.292e-4
-1.153	3.653e-5	-1.284e-4
-1.148	3.960e-5	-1.276e-4
-1.143	4.282e-5	-1.268e-4
-1.138	4.625e-5	-1.258e-4
-1.133	4.984e-5	-1.249e-4
-1.128	5.360e-5	-1.238e-4
-1.123	5.753e-5	-1.226e-4
-1.118	6.159e-5	-1.214e-4
-1.113	6.576e-5	-1.201e-4
-1.108	7.006e-5	-1.187e-4
-1.103	7.444e-5	-1.172e-4
-1.098	7.889e-5	-1.156e-4
-1.093	8.341e-5	-1.139e-4
-1.088	8.791e-5	-1.122e-4
-1.083	9.238e-5	-1.103e-4
-1.078	9.683e-5	-1.084e-4
-1.073	1.012e-4	-1.064e-4
-1.068	1.055e-4	-1.043e-4
-1.063	1.096e-4	-1.021e-4
-1.058	1.136e-4	-9.981e-5
-1.053	1.173e-4	-9.746e-5
-1.048	1.208e-4	-9.504e-5
-1.043	1.240e-4	-9.256e-5
-1.038	1.269e-4	-9.003e-5
-1.033	1.294e-4	-8.744e-5
-1.028	1.317e-4	-8.480e-5
-1.023	1.335e-4	-8.213e-5
-1.018	1.350e-4	-7.943e-5
-1.013	1.362e-4	-7.671e-5
-1.008	1.370e-4	-7.397e-5
-1.003	1.374e-4	-7.122e-5
-0.998	1.376e-4	-6.847e-5
-0.993	1.374e-4	-6.572e-5
-0.988	1.369e-4	-6.298e-5
-0.983	1.363e-4	-6.026e-5
-0.978	1.353e-4	-5.755e-5
-0.973	1.342e-4	-5.487e-5
-0.968	1.329e-4	-5.221e-5
-0.963	1.315e-4	-4.958e-5
-0.958	1.299e-4	-4.698e-5
-0.953	1.282e-4	-4.442e-5
-0.948	1.265e-4	-4.189e-5
-0.943	1.247e-4	-3.940e-5
-0.938	1.228e-4	-3.694e-5
-0.933	1.209e-4	-3.452e-5
-0.928	1.191e-4	-3.214e-5
-0.923	1.172e-4	-2.979e-5
-0.918	1.153e-4	-2.749e-5
-0.913	1.135e-4	-2.522e-5
-0.908	1.117e-4	-2.298e-5
-0.903	1.099e-4	-2.079e-5
-0.898	1.081e-4	-1.862e-5
-0.893	1.064e-4	-1.650e-5
-0.888	1.047e-4	-1.440e-5
-0.883	1.031e-4	-1.234e-5
-0.878	1.015e-4	-1.031e-5
-0.873	9.999e-5	-8.310e-6
-0.868	9.850e-5	-6.340e-6
-0.863	9.705e-5	-4.399e-6
-0.858	9.563e-5	-2.486e-6
-0.853	9.426e-5	-6.006e-7
-0.848	9.293e-5	1.258e-6
-0.843	9.164e-5	3.091e-6
-0.838	9.041e-5	4.899e-6
-0.833	8.921e-5	6.683e-6
-0.828	8.804e-5	8.444e-6
-0.823	8.689e-5	1.018e-5
-0.818	8.577e-5	1.190e-5
-0.813	8.467e-5	1.359e-5
-0.808	8.360e-5	1.526e-5
-0.803	8.256e-5	1.691e-5
-0.798	8.155e-5	1.854e-5
-0.793	8.055e-5	2.016e-5
-0.788	7.959e-5	2.175e-5
-0.783	7.863e-5	2.332e-5
-0.778	7.768e-5	2.487e-5
-0.773	7.675e-5	2.641e-5
-0.768	7.584e-5	2.793e-5
-0.763	7.495e-5	2.942e-5
-0.758	7.409e-5	3.091e-5
-0.753	7.325e-5	3.237e-5
-0.748	7.242e-5	3.382e-5
-0.743	7.161e-5	3.525e-5
-0.738	7.080e-5	3.667e-5
-0.733	7.001e-5	3.807e-5
-0.728	6.923e-5	3.945e-5
-0.723	6.847e-5	4.082e-5
-0.718	6.773e-5	4.218e-5
-0.713	6.700e-5	4.352e-5
-0.708	6.630e-5	4.484e-5
-0.703	6.560e-5	4.615e-5
-0.698	6.492e-5	4.745e-5
-0.693	6.425e-5	4.874e-5
-0.688	6.359e-5	5.001e-5
-0.683	6.295e-5	5.127e-5
-0.678	6.234e-5	5.252e-5
-0.673	6.175e-5	5.375e-5
-0.668	6.117e-5	5.497e-5
-0.663	6.060e-5	5.619e-5
-0.658	6.002e-5	5.739e-5
-0.653	5.946e-5	5.858e-5
-0.648	5.891e-5	5.975e-5
-0.643	5.838e-5	6.092e-5
-0.638	5.787e-5	6.208e-5
-0.633	5.736e-5	6.323e-5
-0.628	5.686e-5	6.436e-5
-0.623	5.636e-5	6.549e-5
-0.618	5.586e-5	6.661e-5
-0.613	5.538e-5	6.772e-5
-0.608	5.490e-5	6.881e-5
-0.603	5.444e-5	6.990e-5
-0.598	5.398e-5	7.098e-5
-0.593	5.354e-5	7.205e-5
-0.588	5.309e-5	7.311e-5
-0.583	5.265e-5	7.417e-5
-0.578	5.220e-5	7.521e-5
-0.573	5.175e-5	7.625e-5
-0.568	5.132e-5	7.727e-5
-0.563	5.089e-5	7.829e-5
-0.558	5.047e-5	7.930e-5
-0.553	5.007e-5	8.030e-5
-0.548	4.966e-5	8.129e-5
-0.543	4.926e-5	8.228e-5
-0.538	4.887e-5	8.326e-5
-0.533	4.848e-5	8.423e-5
-0.528	4.809e-5	8.519e-5
-0.523	4.771e-5	8.614e-5
-0.518	4.734e-5	8.709e-5
-0.513	4.698e-5	8.803e-5
-0.508	4.661e-5	8.896e-5
-0.503	4.625e-5	8.989e-5
-0.498	4.590e-5	9.080e-5
-0.493	4.555e-5	9.172e-5
-0.488	4.522e-5	9.262e-5
-0.483	4.489e-5	9.352e-5
-0.478	4.457e-5	9.441e-5
-0.473	4.425e-5	9.529e-5
-0.468	4.393e-5	9.617e-5
-0.463	4.362e-5	9.705e-5
-0.458	4.331e-5	9.791e-5
-0.453	4.302e-5	9.877e-5
-0.448	4.274e-5	9.963e-5
-0.443	4.247e-5	1.005e-4
-0.438	4.220e-5	1.013e-4
-0.433	4.192e-5	1.022e-4
-0.428	4.165e-5	1.030e-4
-0.423	4.137e-5	1.038e-4
-0.418	4.112e-5	1.046e-4
-0.413	4.087e-5	1.055e-4
-0.408	4.063e-5	1.063e-4
-0.403	4.040e-5	1.071e-4
-0.398	4.016e-5	1.079e-4
-0.393	3.992e-5	1.087e-4
-0.388	3.968e-5	1.095e-4
-0.383	3.944e-5	1.103e-4
-0.378	3.920e-5	1.110e-4
-0.373	3.896e-5	1.118e-4
-0.368	3.873e-5	1.126e-4
-0.363	3.852e-5	1.134e-4
-0.358	3.834e-5	1.141e-4
-0.353	3.816e-5	1.149e-4
-0.348	3.800e-5	1.157e-4
-0.343	3.783e-5	1.164e-4
-0.338	3.765e-5	1.172e-4
-0.333	3.746e-5	1.179e-4
-0.328	3.728e-5	1.187e-4
-0.323	3.710e-5	1.194e-4
-0.318	3.692e-5	1.201e-4
-0.313	3.674e-5	1.209e-4
-0.308	3.656e-5	1.216e-4
-0.303	3.640e-5	1.223e-4
-0.298	3.624e-5	1.231e-4
-0.293	3.609e-5	1.238e-4
-0.288	3.593e-5	1.245e-4
-0.283	3.579e-5	1.252e-4
-0.278	3.564e-5	1.259e-4
-0.273	3.550e-5	1.266e-4
-0.268	3.536e-5	1.274e-4
-0.263	3.523e-5	1.281e-4
-0.258	3.511e-5	1.288e-4
-0.253	3.499e-5	1.295e-4
-0.248	3.488e-5	1.302e-4
-0.243	3.478e-5	1.309e-4
-0.238	3.467e-5	1.315e-4
-0.233	3.455e-5	1.322e-4
-0.228	3.444e-5	1.329e-4
-0.223	3.434e-5	1.336e-4
-0.218	3.424e-5	1.343e-4
-0.213	3.415e-5	1.350e-4
-0.208	3.406e-5	1.357e-4
-0.203	3.399e-5	1.363e-4
