Oct. 15, 2019   17:44:50
Cyclic Voltammetry
File: cv_dmpz_re2_012
Data Source:  Experiment
Instrument Model:  CHI760E
Data Proc:  Smoothing
Header: 
Note: 

Init E (V) = -0.2
High E (V) = -0.2
Low E (V) = -1.9
Init P/N = N
Scan Rate (V/s) = 0.25
Segment = 6
Sample Interval (V) = 0.005
Quiet Time (sec) = 2
Sensitivity (A/V) = 1e-4

Segment 1:
Ep = -1.497V
ip = -1.446e-4A
Ah = -7.109e-5C

Segment 2:
Ep = -1.048V
ip = 7.633e-5A
Ah = 3.123e-5C

Segment 3:
Ep = -1.502V
ip = -1.473e-4A
Ah = -9.710e-5C

Segment 4:
Ep = -1.048V
ip = 7.597e-5A
Ah = 2.981e-5C

Segment 5:
Ep = -1.497V
ip = -1.517e-4A
Ah = -8.899e-5C

Segment 6:
Ep = -1.043V
ip = 8.894e-5A
Ah = 5.564e-5C

Potential/V	Current/A

-0.202	1.859e-5	3.717e-7
-0.207	1.838e-5	7.392e-7
-0.212	1.818e-5	1.103e-6
-0.217	1.800e-5	1.463e-6
-0.222	1.784e-5	1.820e-6
-0.227	1.770e-5	2.174e-6
-0.232	1.756e-5	2.525e-6
-0.237	1.743e-5	2.873e-6
-0.242	1.729e-5	3.219e-6
-0.247	1.716e-5	3.563e-6
-0.252	1.704e-5	3.903e-6
-0.257	1.693e-5	4.242e-6
-0.262	1.682e-5	4.578e-6
-0.267	1.672e-5	4.913e-6
-0.272	1.661e-5	5.245e-6
-0.277	1.650e-5	5.575e-6
-0.282	1.639e-5	5.903e-6
-0.287	1.629e-5	6.229e-6
-0.292	1.620e-5	6.553e-6
-0.297	1.610e-5	6.875e-6
-0.302	1.601e-5	7.195e-6
-0.307	1.592e-5	7.513e-6
-0.312	1.582e-5	7.830e-6
-0.317	1.573e-5	8.144e-6
-0.322	1.563e-5	8.457e-6
-0.327	1.553e-5	8.767e-6
-0.332	1.543e-5	9.076e-6
-0.337	1.533e-5	9.382e-6
-0.342	1.523e-5	9.687e-6
-0.347	1.514e-5	9.990e-6
-0.352	1.504e-5	1.029e-5
-0.357	1.494e-5	1.059e-5
-0.362	1.484e-5	1.089e-5
-0.367	1.473e-5	1.118e-5
-0.372	1.462e-5	1.147e-5
-0.377	1.451e-5	1.176e-5
-0.382	1.440e-5	1.205e-5
-0.387	1.430e-5	1.234e-5
-0.392	1.420e-5	1.262e-5
-0.397	1.409e-5	1.290e-5
-0.402	1.398e-5	1.318e-5
-0.407	1.386e-5	1.346e-5
-0.412	1.373e-5	1.373e-5
-0.417	1.361e-5	1.401e-5
-0.422	1.349e-5	1.428e-5
-0.427	1.337e-5	1.454e-5
-0.432	1.325e-5	1.481e-5
-0.437	1.313e-5	1.507e-5
-0.442	1.300e-5	1.533e-5
-0.447	1.287e-5	1.559e-5
-0.452	1.274e-5	1.584e-5
-0.457	1.260e-5	1.610e-5
-0.462	1.246e-5	1.634e-5
-0.467	1.232e-5	1.659e-5
-0.472	1.218e-5	1.683e-5
-0.477	1.204e-5	1.708e-5
-0.482	1.190e-5	1.731e-5
-0.487	1.176e-5	1.755e-5
-0.492	1.163e-5	1.778e-5
-0.497	1.148e-5	1.801e-5
-0.502	1.134e-5	1.824e-5
-0.507	1.119e-5	1.846e-5
-0.512	1.104e-5	1.868e-5
-0.517	1.089e-5	1.890e-5
-0.522	1.074e-5	1.912e-5
-0.527	1.059e-5	1.933e-5
-0.532	1.045e-5	1.954e-5
-0.537	1.031e-5	1.974e-5
-0.542	1.017e-5	1.995e-5
-0.547	1.002e-5	2.015e-5
-0.552	9.871e-6	2.034e-5
-0.557	9.719e-6	2.054e-5
-0.562	9.563e-6	2.073e-5
-0.567	9.413e-6	2.092e-5
-0.572	9.265e-6	2.110e-5
-0.577	9.118e-6	2.128e-5
-0.582	8.975e-6	2.146e-5
-0.587	8.831e-6	2.164e-5
-0.592	8.681e-6	2.181e-5
-0.597	8.530e-6	2.199e-5
-0.602	8.379e-6	2.215e-5
-0.607	8.230e-6	2.232e-5
-0.612	8.086e-6	2.248e-5
-0.617	7.947e-6	2.264e-5
-0.622	7.805e-6	2.279e-5
-0.627	7.664e-6	2.295e-5
-0.632	7.519e-6	2.310e-5
-0.637	7.370e-6	2.325e-5
-0.642	7.222e-6	2.339e-5
-0.647	7.074e-6	2.353e-5
-0.652	6.927e-6	2.367e-5
-0.657	6.783e-6	2.381e-5
-0.662	6.635e-6	2.394e-5
-0.667	6.487e-6	2.407e-5
-0.672	6.344e-6	2.419e-5
-0.677	6.201e-6	2.432e-5
-0.682	6.060e-6	2.444e-5
-0.687	5.920e-6	2.456e-5
-0.692	5.774e-6	2.467e-5
-0.697	5.631e-6	2.479e-5
-0.702	5.492e-6	2.490e-5
-0.707	5.352e-6	2.500e-5
-0.712	5.217e-6	2.511e-5
-0.717	5.087e-6	2.521e-5
-0.722	4.957e-6	2.531e-5
-0.727	4.829e-6	2.541e-5
-0.732	4.702e-6	2.550e-5
-0.737	4.569e-6	2.559e-5
-0.742	4.440e-6	2.568e-5
-0.747	4.312e-6	2.577e-5
-0.752	4.184e-6	2.585e-5
-0.757	4.056e-6	2.593e-5
-0.762	3.930e-6	2.601e-5
-0.767	3.805e-6	2.609e-5
-0.772	3.683e-6	2.616e-5
-0.777	3.567e-6	2.623e-5
-0.782	3.449e-6	2.630e-5
-0.787	3.329e-6	2.637e-5
-0.792	3.206e-6	2.643e-5
-0.797	3.077e-6	2.649e-5
-0.802	2.945e-6	2.655e-5
-0.807	2.822e-6	2.661e-5
-0.812	2.700e-6	2.666e-5
-0.817	2.583e-6	2.671e-5
-0.822	2.472e-6	2.676e-5
-0.827	2.359e-6	2.681e-5
-0.832	2.248e-6	2.685e-5
-0.837	2.138e-6	2.690e-5
-0.842	2.029e-6	2.694e-5
-0.847	1.932e-6	2.698e-5
-0.852	1.842e-6	2.701e-5
-0.857	1.751e-6	2.705e-5
-0.862	1.662e-6	2.708e-5
-0.867	1.566e-6	2.711e-5
-0.872	1.464e-6	2.714e-5
-0.877	1.371e-6	2.717e-5
-0.882	1.277e-6	2.719e-5
-0.887	1.181e-6	2.722e-5
-0.892	1.099e-6	2.724e-5
-0.897	1.017e-6	2.726e-5
-0.902	9.291e-7	2.728e-5
-0.907	8.471e-7	2.730e-5
-0.912	7.644e-7	2.731e-5
-0.917	6.830e-7	2.732e-5
-0.922	6.101e-7	2.734e-5
-0.927	5.375e-7	2.735e-5
-0.932	4.567e-7	2.736e-5
-0.937	3.764e-7	2.736e-5
-0.942	2.936e-7	2.737e-5
-0.947	2.094e-7	2.737e-5
-0.952	1.269e-7	2.738e-5
-0.957	4.929e-8	2.738e-5
-0.962	-2.700e-8	2.738e-5
-0.967	-9.744e-8	2.738e-5
-0.972	-1.650e-7	2.737e-5
-0.977	-2.324e-7	2.737e-5
-0.982	-3.003e-7	2.736e-5
-0.987	-3.703e-7	2.735e-5
-0.992	-4.417e-7	2.735e-5
-0.997	-5.112e-7	2.734e-5
-1.002	-5.653e-7	2.732e-5
-1.007	-6.099e-7	2.731e-5
-1.012	-6.479e-7	2.730e-5
-1.017	-6.928e-7	2.728e-5
-1.022	-7.455e-7	2.727e-5
-1.027	-8.035e-7	2.725e-5
-1.032	-8.605e-7	2.724e-5
-1.037	-9.165e-7	2.722e-5
-1.042	-9.650e-7	2.720e-5
-1.047	-1.021e-6	2.718e-5
-1.052	-1.083e-6	2.716e-5
-1.057	-1.149e-6	2.713e-5
-1.062	-1.227e-6	2.711e-5
-1.067	-1.309e-6	2.708e-5
-1.072	-1.388e-6	2.706e-5
-1.077	-1.475e-6	2.703e-5
-1.082	-1.566e-6	2.699e-5
-1.087	-1.664e-6	2.696e-5
-1.092	-1.774e-6	2.693e-5
-1.097	-1.892e-6	2.689e-5
-1.102	-2.016e-6	2.685e-5
-1.107	-2.144e-6	2.680e-5
-1.112	-2.273e-6	2.676e-5
-1.117	-2.404e-6	2.671e-5
-1.122	-2.541e-6	2.666e-5
-1.127	-2.683e-6	2.661e-5
-1.132	-2.830e-6	2.655e-5
-1.137	-2.982e-6	2.649e-5
-1.142	-3.135e-6	2.643e-5
-1.147	-3.291e-6	2.636e-5
-1.152	-3.458e-6	2.629e-5
-1.157	-3.632e-6	2.622e-5
-1.162	-3.806e-6	2.614e-5
-1.167	-3.990e-6	2.606e-5
-1.172	-4.178e-6	2.598e-5
-1.177	-4.375e-6	2.589e-5
-1.182	-4.592e-6	2.580e-5
-1.187	-4.827e-6	2.570e-5
-1.192	-5.075e-6	2.560e-5
-1.197	-5.340e-6	2.550e-5
-1.202	-5.618e-6	2.538e-5
-1.207	-5.919e-6	2.527e-5
-1.212	-6.248e-6	2.514e-5
-1.217	-6.615e-6	2.501e-5
-1.222	-7.016e-6	2.487e-5
-1.227	-7.447e-6	2.472e-5
-1.232	-7.912e-6	2.456e-5
-1.237	-8.419e-6	2.439e-5
-1.242	-8.976e-6	2.421e-5
-1.247	-9.593e-6	2.402e-5
-1.252	-1.028e-5	2.382e-5
-1.257	-1.103e-5	2.360e-5
-1.262	-1.186e-5	2.336e-5
-1.267	-1.277e-5	2.310e-5
-1.272	-1.377e-5	2.283e-5
-1.277	-1.485e-5	2.253e-5
-1.282	-1.603e-5	2.221e-5
-1.287	-1.731e-5	2.186e-5
-1.292	-1.872e-5	2.149e-5
-1.297	-2.028e-5	2.108e-5
-1.302	-2.198e-5	2.064e-5
-1.307	-2.381e-5	2.017e-5
-1.312	-2.579e-5	1.965e-5
-1.317	-2.793e-5	1.909e-5
-1.322	-3.021e-5	1.849e-5
-1.327	-3.266e-5	1.784e-5
-1.332	-3.530e-5	1.713e-5
-1.337	-3.812e-5	1.637e-5
-1.342	-4.113e-5	1.554e-5
-1.347	-4.436e-5	1.466e-5
-1.352	-4.775e-5	1.370e-5
-1.357	-5.130e-5	1.268e-5
-1.362	-5.504e-5	1.158e-5
-1.367	-5.894e-5	1.040e-5
-1.372	-6.299e-5	9.137e-6
-1.377	-6.720e-5	7.793e-6
-1.382	-7.155e-5	6.362e-6
-1.387	-7.606e-5	4.841e-6
-1.392	-8.074e-5	3.226e-6
-1.397	-8.553e-5	1.515e-6
-1.402	-9.034e-5	-2.913e-7
-1.407	-9.516e-5	-2.195e-6
-1.412	-9.994e-5	-4.193e-6
-1.417	-1.046e-4	-6.286e-6
-1.422	-1.093e-4	-8.472e-6
-1.427	-1.139e-4	-1.075e-5
-1.432	-1.183e-4	-1.312e-5
-1.437	-1.227e-4	-1.557e-5
-1.442	-1.267e-4	-1.810e-5
-1.447	-1.305e-4	-2.071e-5
-1.452	-1.340e-4	-2.339e-5
-1.457	-1.372e-4	-2.614e-5
-1.462	-1.400e-4	-2.894e-5
-1.467	-1.426e-4	-3.179e-5
-1.472	-1.447e-4	-3.468e-5
-1.477	-1.465e-4	-3.761e-5
-1.482	-1.479e-4	-4.057e-5
-1.487	-1.489e-4	-4.355e-5
-1.492	-1.495e-4	-4.654e-5
-1.497	-1.498e-4	-4.953e-5
-1.502	-1.498e-4	-5.253e-5
-1.507	-1.495e-4	-5.552e-5
-1.512	-1.489e-4	-5.850e-5
-1.517	-1.482e-4	-6.146e-5
-1.522	-1.472e-4	-6.440e-5
-1.527	-1.460e-4	-6.732e-5
-1.532	-1.446e-4	-7.022e-5
-1.537	-1.432e-4	-7.308e-5
-1.542	-1.418e-4	-7.592e-5
-1.547	-1.402e-4	-7.872e-5
-1.552	-1.386e-4	-8.149e-5
-1.557	-1.370e-4	-8.423e-5
-1.562	-1.354e-4	-8.694e-5
-1.567	-1.338e-4	-8.962e-5
-1.572	-1.323e-4	-9.226e-5
-1.577	-1.308e-4	-9.488e-5
-1.582	-1.293e-4	-9.747e-5
-1.587	-1.278e-4	-1.000e-4
-1.592	-1.264e-4	-1.025e-4
-1.597	-1.250e-4	-1.051e-4
-1.602	-1.237e-4	-1.075e-4
-1.607	-1.225e-4	-1.100e-4
-1.612	-1.213e-4	-1.124e-4
-1.617	-1.201e-4	-1.148e-4
-1.622	-1.190e-4	-1.172e-4
-1.627	-1.179e-4	-1.195e-4
-1.632	-1.169e-4	-1.219e-4
-1.637	-1.159e-4	-1.242e-4
-1.642	-1.149e-4	-1.265e-4
-1.647	-1.140e-4	-1.288e-4
-1.652	-1.131e-4	-1.310e-4
-1.657	-1.123e-4	-1.333e-4
-1.662	-1.115e-4	-1.355e-4
-1.667	-1.108e-4	-1.377e-4
-1.672	-1.100e-4	-1.399e-4
-1.677	-1.093e-4	-1.421e-4
-1.682	-1.087e-4	-1.443e-4
-1.687	-1.081e-4	-1.464e-4
-1.692	-1.075e-4	-1.486e-4
-1.697	-1.069e-4	-1.507e-4
-1.702	-1.064e-4	-1.529e-4
-1.707	-1.059e-4	-1.550e-4
-1.712	-1.054e-4	-1.571e-4
-1.717	-1.049e-4	-1.592e-4
-1.722	-1.045e-4	-1.613e-4
-1.727	-1.041e-4	-1.634e-4
-1.732	-1.037e-4	-1.654e-4
-1.737	-1.033e-4	-1.675e-4
-1.742	-1.030e-4	-1.696e-4
-1.747	-1.026e-4	-1.716e-4
-1.752	-1.023e-4	-1.737e-4
-1.757	-1.021e-4	-1.757e-4
-1.762	-1.018e-4	-1.777e-4
-1.767	-1.016e-4	-1.798e-4
-1.772	-1.014e-4	-1.818e-4
-1.777	-1.011e-4	-1.838e-4
-1.782	-1.010e-4	-1.858e-4
-1.787	-1.008e-4	-1.879e-4
-1.792	-1.006e-4	-1.899e-4
-1.797	-1.005e-4	-1.919e-4
-1.802	-1.005e-4	-1.939e-4
-1.807	-1.004e-4	-1.959e-4
-1.812	-1.004e-4	-1.979e-4
-1.817	-1.003e-4	-1.999e-4
-1.822	-1.003e-4	-2.019e-4
-1.827	-1.003e-4	-2.039e-4
-1.832	-1.003e-4	-2.059e-4
-1.837	-1.004e-4	-2.079e-4
-1.842	-1.005e-4	-2.099e-4
-1.847	-1.006e-4	-2.120e-4
-1.852	-1.007e-4	-2.140e-4
-1.857	-1.008e-4	-2.160e-4
-1.862	-1.010e-4	-2.180e-4
-1.867	-1.012e-4	-2.200e-4
-1.872	-1.014e-4	-2.221e-4
-1.877	-1.016e-4	-2.241e-4
-1.882	-1.019e-4	-2.261e-4
-1.887	-1.022e-4	-2.282e-4
-1.892	-1.025e-4	-2.302e-4
-1.897	-1.029e-4	-2.323e-4
-1.898	-9.787e-5	-1.957e-6
-1.893	-9.521e-5	-3.862e-6
-1.888	-9.278e-5	-5.717e-6
-1.883	-9.057e-5	-7.529e-6
-1.878	-8.863e-5	-9.301e-6
-1.873	-8.688e-5	-1.104e-5
-1.868	-8.527e-5	-1.274e-5
-1.863	-8.374e-5	-1.442e-5
-1.858	-8.228e-5	-1.606e-5
-1.853	-8.090e-5	-1.768e-5
-1.848	-7.956e-5	-1.927e-5
-1.843	-7.828e-5	-2.084e-5
-1.838	-7.706e-5	-2.238e-5
-1.833	-7.586e-5	-2.390e-5
-1.828	-7.471e-5	-2.539e-5
-1.823	-7.358e-5	-2.686e-5
-1.818	-7.244e-5	-2.831e-5
-1.813	-7.133e-5	-2.974e-5
-1.808	-7.025e-5	-3.114e-5
-1.803	-6.920e-5	-3.253e-5
-1.798	-6.819e-5	-3.389e-5
-1.793	-6.721e-5	-3.524e-5
-1.788	-6.625e-5	-3.656e-5
-1.783	-6.531e-5	-3.787e-5
-1.778	-6.438e-5	-3.915e-5
-1.773	-6.346e-5	-4.042e-5
-1.768	-6.258e-5	-4.168e-5
-1.763	-6.172e-5	-4.291e-5
-1.758	-6.089e-5	-4.413e-5
-1.753	-6.008e-5	-4.533e-5
-1.748	-5.928e-5	-4.652e-5
-1.743	-5.849e-5	-4.769e-5
-1.738	-5.773e-5	-4.884e-5
-1.733	-5.699e-5	-4.998e-5
-1.728	-5.627e-5	-5.111e-5
-1.723	-5.558e-5	-5.222e-5
-1.718	-5.491e-5	-5.331e-5
-1.713	-5.425e-5	-5.440e-5
-1.708	-5.363e-5	-5.547e-5
-1.703	-5.300e-5	-5.653e-5
-1.698	-5.238e-5	-5.758e-5
-1.693	-5.178e-5	-5.862e-5
-1.688	-5.120e-5	-5.964e-5
-1.683	-5.063e-5	-6.065e-5
-1.678	-5.008e-5	-6.165e-5
-1.673	-4.952e-5	-6.264e-5
-1.668	-4.896e-5	-6.362e-5
-1.663	-4.840e-5	-6.459e-5
-1.658	-4.784e-5	-6.555e-5
-1.653	-4.728e-5	-6.649e-5
-1.648	-4.672e-5	-6.743e-5
-1.643	-4.617e-5	-6.835e-5
-1.638	-4.561e-5	-6.926e-5
-1.633	-4.506e-5	-7.017e-5
-1.628	-4.451e-5	-7.106e-5
-1.623	-4.395e-5	-7.193e-5
-1.618	-4.338e-5	-7.280e-5
-1.613	-4.281e-5	-7.366e-5
-1.608	-4.226e-5	-7.450e-5
-1.603	-4.172e-5	-7.534e-5
-1.598	-4.120e-5	-7.616e-5
-1.593	-4.066e-5	-7.697e-5
-1.588	-4.012e-5	-7.778e-5
-1.583	-3.958e-5	-7.857e-5
-1.578	-3.906e-5	-7.935e-5
-1.573	-3.857e-5	-8.012e-5
-1.568	-3.808e-5	-8.088e-5
-1.563	-3.758e-5	-8.163e-5
-1.558	-3.708e-5	-8.238e-5
-1.553	-3.657e-5	-8.311e-5
-1.548	-3.605e-5	-8.383e-5
-1.543	-3.554e-5	-8.454e-5
-1.538	-3.502e-5	-8.524e-5
-1.533	-3.450e-5	-8.593e-5
-1.528	-3.396e-5	-8.661e-5
-1.523	-3.341e-5	-8.728e-5
-1.518	-3.285e-5	-8.793e-5
-1.513	-3.226e-5	-8.858e-5
-1.508	-3.163e-5	-8.921e-5
-1.503	-3.097e-5	-8.983e-5
-1.498	-3.028e-5	-9.044e-5
-1.493	-2.957e-5	-9.103e-5
-1.488	-2.883e-5	-9.161e-5
-1.483	-2.807e-5	-9.217e-5
-1.478	-2.728e-5	-9.271e-5
-1.473	-2.646e-5	-9.324e-5
-1.468	-2.564e-5	-9.375e-5
-1.463	-2.477e-5	-9.425e-5
-1.458	-2.387e-5	-9.473e-5
-1.453	-2.296e-5	-9.519e-5
-1.448	-2.207e-5	-9.563e-5
-1.443	-2.120e-5	-9.605e-5
-1.438	-2.033e-5	-9.646e-5
-1.433	-1.944e-5	-9.685e-5
-1.428	-1.852e-5	-9.722e-5
-1.423	-1.760e-5	-9.757e-5
-1.418	-1.670e-5	-9.790e-5
-1.413	-1.580e-5	-9.822e-5
-1.408	-1.495e-5	-9.852e-5
-1.403	-1.412e-5	-9.880e-5
-1.398	-1.328e-5	-9.907e-5
-1.393	-1.247e-5	-9.932e-5
-1.388	-1.167e-5	-9.955e-5
-1.383	-1.087e-5	-9.977e-5
-1.378	-1.014e-5	-9.997e-5
-1.373	-9.418e-6	-1.002e-4
-1.368	-8.715e-6	-1.003e-4
-1.363	-8.059e-6	-1.005e-4
-1.358	-7.425e-6	-1.006e-4
-1.353	-6.795e-6	-1.008e-4
-1.348	-6.199e-6	-1.009e-4
-1.343	-5.614e-6	-1.010e-4
-1.338	-5.049e-6	-1.011e-4
-1.333	-4.522e-6	-1.012e-4
-1.328	-4.011e-6	-1.013e-4
-1.323	-3.502e-6	-1.014e-4
-1.318	-3.000e-6	-1.014e-4
-1.313	-2.500e-6	-1.015e-4
-1.308	-2.004e-6	-1.015e-4
-1.303	-1.515e-6	-1.015e-4
-1.298	-1.027e-6	-1.016e-4
-1.293	-5.284e-7	-1.016e-4
-1.288	-1.631e-8	-1.016e-4
-1.283	5.144e-7	-1.016e-4
-1.278	1.077e-6	-1.015e-4
-1.273	1.668e-6	-1.015e-4
-1.268	2.288e-6	-1.015e-4
-1.263	2.960e-6	-1.014e-4
-1.258	3.685e-6	-1.013e-4
-1.253	4.465e-6	-1.012e-4
-1.248	5.328e-6	-1.011e-4
-1.243	6.268e-6	-1.010e-4
-1.238	7.280e-6	-1.009e-4
-1.233	8.391e-6	-1.007e-4
-1.228	9.604e-6	-1.005e-4
-1.223	1.092e-5	-1.003e-4
-1.218	1.237e-5	-1.000e-4
-1.213	1.396e-5	-9.975e-5
-1.208	1.570e-5	-9.944e-5
-1.203	1.762e-5	-9.909e-5
-1.198	1.970e-5	-9.869e-5
-1.193	2.193e-5	-9.825e-5
-1.188	2.431e-5	-9.777e-5
-1.183	2.686e-5	-9.723e-5
-1.178	2.957e-5	-9.664e-5
-1.173	3.249e-5	-9.599e-5
-1.168	3.557e-5	-9.528e-5
-1.163	3.878e-5	-9.450e-5
-1.158	4.214e-5	-9.366e-5
-1.153	4.563e-5	-9.275e-5
-1.148	4.921e-5	-9.176e-5
-1.143	5.290e-5	-9.070e-5
-1.138	5.666e-5	-8.957e-5
-1.133	6.041e-5	-8.836e-5
-1.128	6.415e-5	-8.708e-5
-1.123	6.786e-5	-8.572e-5
-1.118	7.150e-5	-8.429e-5
-1.113	7.509e-5	-8.279e-5
-1.108	7.858e-5	-8.122e-5
-1.103	8.186e-5	-7.958e-5
-1.098	8.492e-5	-7.788e-5
-1.093	8.773e-5	-7.613e-5
-1.088	9.028e-5	-7.432e-5
-1.083	9.261e-5	-7.247e-5
-1.078	9.464e-5	-7.058e-5
-1.073	9.635e-5	-6.865e-5
-1.068	9.773e-5	-6.670e-5
-1.063	9.878e-5	-6.472e-5
-1.058	9.951e-5	-6.273e-5
-1.053	9.993e-5	-6.073e-5
-1.048	1.000e-4	-5.873e-5
-1.043	9.988e-5	-5.673e-5
-1.038	9.947e-5	-5.474e-5
-1.033	9.886e-5	-5.277e-5
-1.028	9.809e-5	-5.081e-5
-1.023	9.714e-5	-4.886e-5
-1.018	9.605e-5	-4.694e-5
-1.013	9.484e-5	-4.504e-5
-1.008	9.354e-5	-4.317e-5
-1.003	9.218e-5	-4.133e-5
-0.998	9.079e-5	-3.951e-5
-0.993	8.938e-5	-3.773e-5
-0.988	8.796e-5	-3.597e-5
-0.983	8.653e-5	-3.424e-5
-0.978	8.512e-5	-3.253e-5
-0.973	8.370e-5	-3.086e-5
-0.968	8.230e-5	-2.921e-5
-0.963	8.093e-5	-2.760e-5
-0.958	7.959e-5	-2.600e-5
-0.953	7.828e-5	-2.444e-5
-0.948	7.701e-5	-2.290e-5
-0.943	7.576e-5	-2.138e-5
-0.938	7.453e-5	-1.989e-5
-0.933	7.333e-5	-1.843e-5
-0.928	7.216e-5	-1.698e-5
-0.923	7.103e-5	-1.556e-5
-0.918	6.994e-5	-1.416e-5
-0.913	6.889e-5	-1.278e-5
-0.908	6.786e-5	-1.143e-5
-0.903	6.685e-5	-1.009e-5
-0.898	6.587e-5	-8.773e-6
-0.893	6.493e-5	-7.475e-6
-0.888	6.401e-5	-6.194e-6
-0.883	6.311e-5	-4.932e-6
-0.878	6.224e-5	-3.687e-6
-0.873	6.138e-5	-2.460e-6
-0.868	6.055e-5	-1.249e-6
-0.863	5.975e-5	-5.388e-8
-0.858	5.896e-5	1.125e-6
-0.853	5.818e-5	2.289e-6
-0.848	5.741e-5	3.437e-6
-0.843	5.666e-5	4.570e-6
-0.838	5.593e-5	5.689e-6
-0.833	5.523e-5	6.793e-6
-0.828	5.453e-5	7.884e-6
-0.823	5.385e-5	8.961e-6
-0.818	5.318e-5	1.002e-5
-0.813	5.251e-5	1.107e-5
-0.808	5.186e-5	1.211e-5
-0.803	5.122e-5	1.314e-5
-0.798	5.059e-5	1.415e-5
-0.793	4.998e-5	1.515e-5
-0.788	4.937e-5	1.614e-5
-0.783	4.877e-5	1.711e-5
-0.778	4.819e-5	1.807e-5
-0.773	4.762e-5	1.903e-5
-0.768	4.705e-5	1.997e-5
-0.763	4.650e-5	2.090e-5
-0.758	4.596e-5	2.182e-5
-0.753	4.542e-5	2.273e-5
-0.748	4.490e-5	2.362e-5
-0.743	4.438e-5	2.451e-5
-0.738	4.387e-5	2.539e-5
-0.733	4.337e-5	2.626e-5
-0.728	4.288e-5	2.711e-5
-0.723	4.240e-5	2.796e-5
-0.718	4.193e-5	2.880e-5
-0.713	4.146e-5	2.963e-5
-0.708	4.100e-5	3.045e-5
-0.703	4.055e-5	3.126e-5
-0.698	4.010e-5	3.206e-5
-0.693	3.966e-5	3.286e-5
-0.688	3.924e-5	3.364e-5
-0.683	3.884e-5	3.442e-5
-0.678	3.845e-5	3.519e-5
-0.673	3.806e-5	3.595e-5
-0.668	3.767e-5	3.670e-5
-0.663	3.728e-5	3.745e-5
-0.658	3.691e-5	3.818e-5
-0.653	3.656e-5	3.892e-5
-0.648	3.622e-5	3.964e-5
-0.643	3.589e-5	4.036e-5
-0.638	3.556e-5	4.107e-5
-0.633	3.523e-5	4.177e-5
-0.628	3.490e-5	4.247e-5
-0.623	3.458e-5	4.316e-5
-0.618	3.426e-5	4.385e-5
-0.613	3.396e-5	4.453e-5
-0.608	3.367e-5	4.520e-5
-0.603	3.339e-5	4.587e-5
-0.598	3.312e-5	4.653e-5
-0.593	3.286e-5	4.719e-5
-0.588	3.260e-5	4.784e-5
-0.583	3.237e-5	4.849e-5
-0.578	3.213e-5	4.913e-5
-0.573	3.191e-5	4.977e-5
-0.568	3.169e-5	5.040e-5
-0.563	3.148e-5	5.103e-5
-0.558	3.127e-5	5.166e-5
-0.553	3.108e-5	5.228e-5
-0.548	3.090e-5	5.290e-5
-0.543	3.072e-5	5.351e-5
-0.538	3.056e-5	5.412e-5
-0.533	3.040e-5	5.473e-5
-0.528	3.024e-5	5.533e-5
-0.523	3.010e-5	5.594e-5
-0.518	2.997e-5	5.654e-5
-0.513	2.985e-5	5.713e-5
-0.508	2.972e-5	5.773e-5
-0.503	2.960e-5	5.832e-5
-0.498	2.949e-5	5.891e-5
-0.493	2.940e-5	5.950e-5
-0.488	2.932e-5	6.008e-5
-0.483	2.924e-5	6.067e-5
-0.478	2.916e-5	6.125e-5
-0.473	2.910e-5	6.183e-5
-0.468	2.903e-5	6.241e-5
-0.463	2.898e-5	6.299e-5
-0.458	2.894e-5	6.357e-5
-0.453	2.889e-5	6.415e-5
-0.448	2.885e-5	6.473e-5
-0.443	2.881e-5	6.530e-5
-0.438	2.877e-5	6.588e-5
-0.433	2.874e-5	6.645e-5
-0.428	2.872e-5	6.703e-5
-0.423	2.870e-5	6.760e-5
-0.418	2.868e-5	6.818e-5
-0.413	2.866e-5	6.875e-5
-0.408	2.864e-5	6.932e-5
-0.403	2.863e-5	6.989e-5
-0.398	2.861e-5	7.047e-5
-0.393	2.860e-5	7.104e-5
-0.388	2.859e-5	7.161e-5
-0.383	2.858e-5	7.218e-5
-0.378	2.858e-5	7.275e-5
-0.373	2.859e-5	7.333e-5
-0.368	2.860e-5	7.390e-5
-0.363	2.861e-5	7.447e-5
-0.358	2.863e-5	7.504e-5
-0.353	2.864e-5	7.561e-5
-0.348	2.865e-5	7.619e-5
-0.343	2.866e-5	7.676e-5
-0.338	2.867e-5	7.733e-5
-0.333	2.868e-5	7.791e-5
-0.328	2.868e-5	7.848e-5
-0.323	2.869e-5	7.906e-5
-0.318	2.870e-5	7.963e-5
-0.313	2.871e-5	8.020e-5
-0.308	2.873e-5	8.078e-5
-0.303	2.874e-5	8.135e-5
-0.298	2.876e-5	8.193e-5
-0.293	2.877e-5	8.250e-5
-0.288	2.878e-5	8.308e-5
-0.283	2.879e-5	8.365e-5
-0.278	2.879e-5	8.423e-5
-0.273	2.879e-5	8.481e-5
-0.268	2.880e-5	8.538e-5
-0.263	2.880e-5	8.596e-5
-0.258	2.880e-5	8.653e-5
-0.253	2.879e-5	8.711e-5
-0.248	2.877e-5	8.769e-5
-0.243	2.875e-5	8.826e-5
-0.238	2.872e-5	8.883e-5
-0.233	2.869e-5	8.941e-5
-0.228	2.867e-5	8.998e-5
-0.223	2.865e-5	9.056e-5
-0.218	2.861e-5	9.113e-5
-0.213	2.857e-5	9.170e-5
-0.208	2.852e-5	9.227e-5
-0.203	2.846e-5	9.284e-5
-0.202	2.689e-5	5.379e-7
-0.207	2.635e-5	1.065e-6
-0.212	2.583e-5	1.581e-6
-0.217	2.534e-5	2.088e-6
-0.222	2.489e-5	2.586e-6
-0.227	2.446e-5	3.075e-6
-0.232	2.406e-5	3.556e-6
-0.237	2.367e-5	4.030e-6
-0.242	2.330e-5	4.496e-6
-0.247	2.294e-5	4.955e-6
-0.252	2.258e-5	5.406e-6
-0.257	2.224e-5	5.851e-6
-0.262	2.190e-5	6.289e-6
-0.267	2.156e-5	6.720e-6
-0.272	2.124e-5	7.145e-6
-0.277	2.091e-5	7.563e-6
-0.282	2.059e-5	7.975e-6
-0.287	2.027e-5	8.381e-6
-0.292	1.996e-5	8.780e-6
-0.297	1.965e-5	9.173e-6
-0.302	1.935e-5	9.560e-6
-0.307	1.906e-5	9.941e-6
-0.312	1.878e-5	1.032e-5
-0.317	1.849e-5	1.069e-5
-0.322	1.819e-5	1.105e-5
-0.327	1.790e-5	1.141e-5
-0.332	1.762e-5	1.176e-5
-0.337	1.735e-5	1.211e-5
-0.342	1.710e-5	1.245e-5
-0.347	1.685e-5	1.279e-5
-0.352	1.659e-5	1.312e-5
-0.357	1.633e-5	1.344e-5
-0.362	1.609e-5	1.377e-5
-0.367	1.584e-5	1.408e-5
-0.372	1.561e-5	1.440e-5
-0.377	1.537e-5	1.470e-5
-0.382	1.514e-5	1.501e-5
-0.387	1.491e-5	1.530e-5
-0.392	1.468e-5	1.560e-5
-0.397	1.446e-5	1.589e-5
-0.402	1.424e-5	1.617e-5
-0.407	1.403e-5	1.645e-5
-0.412	1.383e-5	1.673e-5
-0.417	1.364e-5	1.700e-5
-0.422	1.344e-5	1.727e-5
-0.427	1.325e-5	1.754e-5
-0.432	1.306e-5	1.780e-5
-0.437	1.287e-5	1.805e-5
-0.442	1.269e-5	1.831e-5
-0.447	1.250e-5	1.856e-5
-0.452	1.232e-5	1.880e-5
-0.457	1.214e-5	1.905e-5
-0.462	1.198e-5	1.929e-5
-0.467	1.181e-5	1.952e-5
-0.472	1.165e-5	1.976e-5
-0.477	1.149e-5	1.999e-5
-0.482	1.133e-5	2.021e-5
-0.487	1.117e-5	2.044e-5
-0.492	1.102e-5	2.066e-5
-0.497	1.088e-5	2.087e-5
-0.502	1.075e-5	2.109e-5
-0.507	1.062e-5	2.130e-5
-0.512	1.048e-5	2.151e-5
-0.517	1.035e-5	2.172e-5
-0.522	1.023e-5	2.192e-5
-0.527	1.013e-5	2.212e-5
-0.532	1.002e-5	2.233e-5
-0.537	9.921e-6	2.252e-5
-0.542	9.814e-6	2.272e-5
-0.547	9.708e-6	2.291e-5
-0.552	9.607e-6	2.311e-5
-0.557	9.512e-6	2.330e-5
-0.562	9.424e-6	2.348e-5
-0.567	9.345e-6	2.367e-5
-0.572	9.267e-6	2.386e-5
-0.577	9.197e-6	2.404e-5
-0.582	9.134e-6	2.422e-5
-0.587	9.073e-6	2.441e-5
-0.592	9.019e-6	2.459e-5
-0.597	8.975e-6	2.477e-5
-0.602	8.932e-6	2.494e-5
-0.607	8.897e-6	2.512e-5
-0.612	8.869e-6	2.530e-5
-0.617	8.835e-6	2.548e-5
-0.622	8.807e-6	2.565e-5
-0.627	8.787e-6	2.583e-5
-0.632	8.764e-6	2.600e-5
-0.637	8.755e-6	2.618e-5
-0.642	8.753e-6	2.635e-5
-0.647	8.750e-6	2.653e-5
-0.652	8.757e-6	2.670e-5
-0.657	8.765e-6	2.688e-5
-0.662	8.762e-6	2.705e-5
-0.667	8.762e-6	2.723e-5
-0.672	8.760e-6	2.740e-5
-0.677	8.753e-6	2.758e-5
-0.682	8.762e-6	2.775e-5
-0.687	8.781e-6	2.793e-5
-0.692	8.798e-6	2.811e-5
-0.697	8.818e-6	2.828e-5
-0.702	8.833e-6	2.846e-5
-0.707	8.838e-6	2.864e-5
-0.712	8.853e-6	2.881e-5
-0.717	8.876e-6	2.899e-5
-0.722	8.903e-6	2.917e-5
-0.727	8.937e-6	2.935e-5
-0.732	8.973e-6	2.953e-5
-0.737	8.998e-6	2.971e-5
-0.742	9.020e-6	2.989e-5
-0.747	9.035e-6	3.007e-5
-0.752	9.048e-6	3.025e-5
-0.757	9.072e-6	3.043e-5
-0.762	9.103e-6	3.061e-5
-0.767	9.134e-6	3.080e-5
-0.772	9.166e-6	3.098e-5
-0.777	9.188e-6	3.116e-5
-0.782	9.200e-6	3.135e-5
-0.787	9.209e-6	3.153e-5
-0.792	9.223e-6	3.171e-5
-0.797	9.240e-6	3.190e-5
-0.802	9.263e-6	3.208e-5
-0.807	9.285e-6	3.227e-5
-0.812	9.295e-6	3.246e-5
-0.817	9.294e-6	3.264e-5
-0.822	9.290e-6	3.283e-5
-0.827	9.278e-6	3.301e-5
-0.832	9.263e-6	3.320e-5
-0.837	9.248e-6	3.338e-5
-0.842	9.223e-6	3.357e-5
-0.847	9.192e-6	3.375e-5
-0.852	9.165e-6	3.394e-5
-0.857	9.125e-6	3.412e-5
-0.862	9.075e-6	3.430e-5
-0.867	9.014e-6	3.448e-5
-0.872	8.938e-6	3.466e-5
-0.877	8.862e-6	3.484e-5
-0.882	8.793e-6	3.501e-5
-0.887	8.715e-6	3.519e-5
-0.892	8.628e-6	3.536e-5
-0.897	8.528e-6	3.553e-5
-0.902	8.409e-6	3.570e-5
-0.907	8.284e-6	3.586e-5
-0.912	8.157e-6	3.603e-5
-0.917	8.025e-6	3.619e-5
-0.922	7.894e-6	3.634e-5
-0.927	7.760e-6	3.650e-5
-0.932	7.613e-6	3.665e-5
-0.937	7.458e-6	3.680e-5
-0.942	7.292e-6	3.695e-5
-0.947	7.118e-6	3.709e-5
-0.952	6.943e-6	3.723e-5
-0.957	6.765e-6	3.736e-5
-0.962	6.574e-6	3.749e-5
-0.967	6.376e-6	3.762e-5
-0.972	6.161e-6	3.775e-5
-0.977	5.932e-6	3.786e-5
-0.982	5.700e-6	3.798e-5
-0.987	5.454e-6	3.809e-5
-0.992	5.196e-6	3.819e-5
-0.997	4.942e-6	3.829e-5
-1.002	4.684e-6	3.838e-5
-1.007	4.418e-6	3.847e-5
-1.012	4.147e-6	3.856e-5
-1.017	3.861e-6	3.863e-5
-1.022	3.568e-6	3.870e-5
-1.027	3.280e-6	3.877e-5
-1.032	2.993e-6	3.883e-5
-1.037	2.704e-6	3.888e-5
-1.042	2.410e-6	3.893e-5
-1.047	2.103e-6	3.897e-5
-1.052	1.791e-6	3.901e-5
-1.057	1.474e-6	3.904e-5
-1.062	1.153e-6	3.906e-5
-1.067	8.289e-7	3.908e-5
-1.072	5.065e-7	3.909e-5
-1.077	1.810e-7	3.909e-5
-1.082	-1.515e-7	3.909e-5
-1.087	-4.916e-7	3.908e-5
-1.092	-8.382e-7	3.906e-5
-1.097	-1.198e-6	3.904e-5
-1.102	-1.553e-6	3.901e-5
-1.107	-1.896e-6	3.897e-5
-1.112	-2.236e-6	3.892e-5
-1.117	-2.569e-6	3.887e-5
-1.122	-2.902e-6	3.882e-5
-1.127	-3.246e-6	3.875e-5
-1.132	-3.591e-6	3.868e-5
-1.137	-3.938e-6	3.860e-5
-1.142	-4.288e-6	3.851e-5
-1.147	-4.636e-6	3.842e-5
-1.152	-4.994e-6	3.832e-5
-1.157	-5.354e-6	3.821e-5
-1.162	-5.713e-6	3.810e-5
-1.167	-6.081e-6	3.798e-5
-1.172	-6.454e-6	3.785e-5
-1.177	-6.831e-6	3.771e-5
-1.182	-7.226e-6	3.757e-5
-1.187	-7.627e-6	3.742e-5
-1.192	-8.030e-6	3.726e-5
-1.197	-8.444e-6	3.709e-5
-1.202	-8.870e-6	3.691e-5
-1.207	-9.312e-6	3.672e-5
-1.212	-9.790e-6	3.653e-5
-1.217	-1.029e-5	3.632e-5
-1.222	-1.081e-5	3.611e-5
-1.227	-1.136e-5	3.588e-5
-1.232	-1.194e-5	3.564e-5
-1.237	-1.255e-5	3.539e-5
-1.242	-1.321e-5	3.512e-5
-1.247	-1.391e-5	3.485e-5
-1.252	-1.465e-5	3.455e-5
-1.257	-1.546e-5	3.424e-5
-1.262	-1.633e-5	3.392e-5
-1.267	-1.725e-5	3.357e-5
-1.272	-1.824e-5	3.321e-5
-1.277	-1.933e-5	3.282e-5
-1.282	-2.050e-5	3.241e-5
-1.287	-2.178e-5	3.197e-5
-1.292	-2.317e-5	3.151e-5
-1.297	-2.465e-5	3.102e-5
-1.302	-2.622e-5	3.049e-5
-1.307	-2.792e-5	2.994e-5
-1.312	-2.973e-5	2.934e-5
-1.317	-3.166e-5	2.871e-5
-1.322	-3.374e-5	2.803e-5
-1.327	-3.597e-5	2.731e-5
-1.332	-3.834e-5	2.655e-5
-1.337	-4.087e-5	2.573e-5
-1.342	-4.351e-5	2.486e-5
-1.347	-4.626e-5	2.393e-5
-1.352	-4.916e-5	2.295e-5
-1.357	-5.223e-5	2.191e-5
-1.362	-5.547e-5	2.080e-5
-1.367	-5.889e-5	1.962e-5
-1.372	-6.245e-5	1.837e-5
-1.377	-6.615e-5	1.705e-5
-1.382	-6.997e-5	1.565e-5
-1.387	-7.387e-5	1.417e-5
-1.392	-7.781e-5	1.261e-5
-1.397	-8.181e-5	1.098e-5
-1.402	-8.587e-5	9.260e-6
-1.407	-9.002e-5	7.460e-6
-1.412	-9.421e-5	5.575e-6
-1.417	-9.837e-5	3.608e-6
-1.422	-1.024e-4	1.561e-6
-1.427	-1.062e-4	-5.643e-7
-1.432	-1.100e-4	-2.765e-6
-1.437	-1.138e-4	-5.040e-6
-1.442	-1.174e-4	-7.387e-6
-1.447	-1.208e-4	-9.804e-6
-1.452	-1.239e-4	-1.228e-5
-1.457	-1.267e-4	-1.482e-5
-1.462	-1.293e-4	-1.740e-5
-1.467	-1.314e-4	-2.003e-5
-1.472	-1.333e-4	-2.270e-5
-1.477	-1.349e-4	-2.540e-5
-1.482	-1.362e-4	-2.812e-5
-1.487	-1.372e-4	-3.086e-5
-1.492	-1.378e-4	-3.362e-5
-1.497	-1.380e-4	-3.638e-5
-1.502	-1.381e-4	-3.914e-5
-1.507	-1.379e-4	-4.190e-5
-1.512	-1.375e-4	-4.465e-5
-1.517	-1.370e-4	-4.739e-5
-1.522	-1.363e-4	-5.011e-5
-1.527	-1.354e-4	-5.282e-5
-1.532	-1.345e-4	-5.551e-5
-1.537	-1.333e-4	-5.818e-5
-1.542	-1.320e-4	-6.082e-5
-1.547	-1.306e-4	-6.343e-5
-1.552	-1.292e-4	-6.601e-5
-1.557	-1.278e-4	-6.857e-5
-1.562	-1.263e-4	-7.109e-5
-1.567	-1.249e-4	-7.359e-5
-1.572	-1.235e-4	-7.606e-5
-1.577	-1.222e-4	-7.851e-5
-1.582	-1.208e-4	-8.092e-5
-1.587	-1.195e-4	-8.331e-5
-1.592	-1.181e-4	-8.567e-5
-1.597	-1.168e-4	-8.801e-5
-1.602	-1.156e-4	-9.032e-5
-1.607	-1.144e-4	-9.261e-5
-1.612	-1.133e-4	-9.488e-5
-1.617	-1.122e-4	-9.712e-5
-1.622	-1.111e-4	-9.934e-5
-1.627	-1.101e-4	-1.015e-4
-1.632	-1.090e-4	-1.037e-4
-1.637	-1.081e-4	-1.059e-4
-1.642	-1.072e-4	-1.080e-4
-1.647	-1.063e-4	-1.102e-4
-1.652	-1.055e-4	-1.123e-4
-1.657	-1.047e-4	-1.144e-4
-1.662	-1.039e-4	-1.164e-4
-1.667	-1.031e-4	-1.185e-4
-1.672	-1.024e-4	-1.205e-4
-1.677	-1.018e-4	-1.226e-4
-1.682	-1.012e-4	-1.246e-4
-1.687	-1.006e-4	-1.266e-4
-1.692	-1.001e-4	-1.286e-4
-1.697	-9.954e-5	-1.306e-4
-1.702	-9.904e-5	-1.326e-4
-1.707	-9.857e-5	-1.346e-4
-1.712	-9.814e-5	-1.365e-4
-1.717	-9.774e-5	-1.385e-4
-1.722	-9.740e-5	-1.404e-4
-1.727	-9.709e-5	-1.424e-4
-1.732	-9.679e-5	-1.443e-4
-1.737	-9.653e-5	-1.462e-4
-1.742	-9.629e-5	-1.482e-4
-1.747	-9.606e-5	-1.501e-4
-1.752	-9.588e-5	-1.520e-4
-1.757	-9.574e-5	-1.539e-4
-1.762	-9.565e-5	-1.558e-4
-1.767	-9.559e-5	-1.577e-4
-1.772	-9.557e-5	-1.597e-4
-1.777	-9.554e-5	-1.616e-4
-1.782	-9.552e-5	-1.635e-4
-1.787	-9.553e-5	-1.654e-4
-1.792	-9.558e-5	-1.673e-4
-1.797	-9.566e-5	-1.692e-4
-1.802	-9.579e-5	-1.711e-4
-1.807	-9.594e-5	-1.730e-4
-1.812	-9.610e-5	-1.750e-4
-1.817	-9.627e-5	-1.769e-4
-1.822	-9.647e-5	-1.788e-4
-1.827	-9.669e-5	-1.808e-4
-1.832	-9.695e-5	-1.827e-4
-1.837	-9.725e-5	-1.846e-4
-1.842	-9.758e-5	-1.866e-4
-1.847	-9.793e-5	-1.885e-4
-1.852	-9.831e-5	-1.905e-4
-1.857	-9.870e-5	-1.925e-4
-1.862	-9.910e-5	-1.945e-4
-1.867	-9.954e-5	-1.965e-4
-1.872	-1.000e-4	-1.985e-4
-1.877	-1.005e-4	-2.005e-4
-1.882	-1.010e-4	-2.025e-4
-1.887	-1.016e-4	-2.045e-4
-1.892	-1.022e-4	-2.066e-4
-1.897	-1.027e-4	-2.086e-4
-1.898	-9.833e-5	-1.967e-6
-1.893	-9.584e-5	-3.883e-6
-1.888	-9.357e-5	-5.755e-6
-1.883	-9.152e-5	-7.585e-6
-1.878	-8.975e-5	-9.380e-6
-1.873	-8.816e-5	-1.114e-5
-1.868	-8.669e-5	-1.288e-5
-1.863	-8.530e-5	-1.458e-5
-1.858	-8.400e-5	-1.626e-5
-1.853	-8.278e-5	-1.792e-5
-1.848	-8.162e-5	-1.955e-5
-1.843	-8.052e-5	-2.116e-5
-1.838	-7.944e-5	-2.275e-5
-1.833	-7.841e-5	-2.432e-5
-1.828	-7.740e-5	-2.587e-5
-1.823	-7.642e-5	-2.739e-5
-1.818	-7.547e-5	-2.890e-5
-1.813	-7.456e-5	-3.040e-5
-1.808	-7.366e-5	-3.187e-5
-1.803	-7.278e-5	-3.332e-5
-1.798	-7.191e-5	-3.476e-5
-1.793	-7.105e-5	-3.618e-5
-1.788	-7.020e-5	-3.759e-5
-1.783	-6.937e-5	-3.898e-5
-1.778	-6.855e-5	-4.035e-5
-1.773	-6.772e-5	-4.170e-5
-1.768	-6.690e-5	-4.304e-5
-1.763	-6.608e-5	-4.436e-5
-1.758	-6.525e-5	-4.567e-5
-1.753	-6.444e-5	-4.695e-5
-1.748	-6.362e-5	-4.823e-5
-1.743	-6.279e-5	-4.948e-5
-1.738	-6.198e-5	-5.072e-5
-1.733	-6.117e-5	-5.195e-5
-1.728	-6.036e-5	-5.315e-5
-1.723	-5.957e-5	-5.434e-5
-1.718	-5.879e-5	-5.552e-5
-1.713	-5.802e-5	-5.668e-5
-1.708	-5.727e-5	-5.782e-5
-1.703	-5.652e-5	-5.896e-5
-1.698	-5.577e-5	-6.007e-5
-1.693	-5.503e-5	-6.117e-5
-1.688	-5.431e-5	-6.226e-5
-1.683	-5.360e-5	-6.333e-5
-1.678	-5.290e-5	-6.439e-5
-1.673	-5.221e-5	-6.543e-5
-1.668	-5.153e-5	-6.646e-5
-1.663	-5.085e-5	-6.748e-5
-1.658	-5.018e-5	-6.848e-5
-1.653	-4.951e-5	-6.947e-5
-1.648	-4.885e-5	-7.045e-5
-1.643	-4.818e-5	-7.141e-5
-1.638	-4.751e-5	-7.236e-5
-1.633	-4.684e-5	-7.330e-5
-1.628	-4.615e-5	-7.422e-5
-1.623	-4.548e-5	-7.513e-5
-1.618	-4.479e-5	-7.603e-5
-1.613	-4.408e-5	-7.691e-5
-1.608	-4.338e-5	-7.778e-5
-1.603	-4.267e-5	-7.863e-5
-1.598	-4.193e-5	-7.947e-5
-1.593	-4.118e-5	-8.029e-5
-1.588	-4.041e-5	-8.110e-5
-1.583	-3.965e-5	-8.189e-5
-1.578	-3.889e-5	-8.267e-5
-1.573	-3.811e-5	-8.343e-5
-1.568	-3.732e-5	-8.418e-5
-1.563	-3.652e-5	-8.491e-5
-1.558	-3.570e-5	-8.563e-5
-1.553	-3.487e-5	-8.632e-5
-1.548	-3.404e-5	-8.700e-5
-1.543	-3.320e-5	-8.767e-5
-1.538	-3.237e-5	-8.832e-5
-1.533	-3.153e-5	-8.895e-5
-1.528	-3.070e-5	-8.956e-5
-1.523	-2.985e-5	-9.016e-5
-1.518	-2.901e-5	-9.074e-5
-1.513	-2.815e-5	-9.130e-5
-1.508	-2.729e-5	-9.185e-5
-1.503	-2.643e-5	-9.237e-5
-1.498	-2.558e-5	-9.289e-5
-1.493	-2.470e-5	-9.338e-5
-1.488	-2.383e-5	-9.386e-5
-1.483	-2.294e-5	-9.432e-5
-1.478	-2.204e-5	-9.476e-5
-1.473	-2.114e-5	-9.518e-5
-1.468	-2.026e-5	-9.558e-5
-1.463	-1.936e-5	-9.597e-5
-1.458	-1.848e-5	-9.634e-5
-1.453	-1.760e-5	-9.669e-5
-1.448	-1.671e-5	-9.703e-5
-1.443	-1.584e-5	-9.734e-5
-1.438	-1.498e-5	-9.764e-5
-1.433	-1.413e-5	-9.793e-5
-1.428	-1.329e-5	-9.819e-5
-1.423	-1.246e-5	-9.844e-5
-1.418	-1.163e-5	-9.867e-5
-1.413	-1.082e-5	-9.889e-5
-1.408	-1.003e-5	-9.909e-5
-1.403	-9.253e-6	-9.928e-5
-1.398	-8.502e-6	-9.945e-5
-1.393	-7.765e-6	-9.960e-5
-1.388	-7.049e-6	-9.974e-5
-1.383	-6.372e-6	-9.987e-5
-1.378	-5.712e-6	-9.998e-5
-1.373	-5.075e-6	-1.001e-4
-1.368	-4.472e-6	-1.002e-4
-1.363	-3.896e-6	-1.003e-4
-1.358	-3.343e-6	-1.003e-4
-1.353	-2.823e-6	-1.004e-4
-1.348	-2.319e-6	-1.004e-4
-1.343	-1.836e-6	-1.005e-4
-1.338	-1.385e-6	-1.005e-4
-1.333	-9.559e-7	-1.005e-4
-1.328	-5.369e-7	-1.005e-4
-1.323	-1.361e-7	-1.005e-4
-1.318	2.656e-7	-1.005e-4
-1.313	6.685e-7	-1.005e-4
-1.308	1.056e-6	-1.005e-4
-1.303	1.437e-6	-1.005e-4
-1.298	1.821e-6	-1.004e-4
-1.293	2.199e-6	-1.004e-4
-1.288	2.588e-6	-1.003e-4
-1.283	3.000e-6	-1.003e-4
-1.278	3.424e-6	-1.002e-4
-1.273	3.877e-6	-1.001e-4
-1.268	4.367e-6	-1.000e-4
-1.263	4.880e-6	-9.993e-5
-1.258	5.433e-6	-9.982e-5
-1.253	6.054e-6	-9.970e-5
-1.248	6.727e-6	-9.956e-5
-1.243	7.466e-6	-9.941e-5
-1.238	8.297e-6	-9.925e-5
-1.233	9.201e-6	-9.906e-5
-1.228	1.018e-5	-9.886e-5
-1.223	1.130e-5	-9.863e-5
-1.218	1.254e-5	-9.838e-5
-1.213	1.391e-5	-9.811e-5
-1.208	1.543e-5	-9.780e-5
-1.203	1.708e-5	-9.746e-5
-1.198	1.883e-5	-9.708e-5
-1.193	2.076e-5	-9.666e-5
-1.188	2.288e-5	-9.621e-5
-1.183	2.518e-5	-9.570e-5
-1.178	2.770e-5	-9.515e-5
-1.173	3.040e-5	-9.454e-5
-1.168	3.324e-5	-9.388e-5
-1.163	3.625e-5	-9.315e-5
-1.158	3.938e-5	-9.236e-5
-1.153	4.261e-5	-9.151e-5
-1.148	4.600e-5	-9.059e-5
-1.143	4.950e-5	-8.960e-5
-1.138	5.308e-5	-8.854e-5
-1.133	5.676e-5	-8.740e-5
-1.128	6.046e-5	-8.619e-5
-1.123	6.411e-5	-8.491e-5
-1.118	6.775e-5	-8.356e-5
-1.113	7.130e-5	-8.213e-5
-1.108	7.475e-5	-8.064e-5
-1.103	7.810e-5	-7.907e-5
-1.098	8.124e-5	-7.745e-5
-1.093	8.413e-5	-7.577e-5
-1.088	8.680e-5	-7.403e-5
-1.083	8.920e-5	-7.225e-5
-1.078	9.131e-5	-7.042e-5
-1.073	9.310e-5	-6.856e-5
-1.068	9.452e-5	-6.667e-5
-1.063	9.560e-5	-6.476e-5
-1.058	9.641e-5	-6.283e-5
-1.053	9.689e-5	-6.089e-5
-1.048	9.707e-5	-5.895e-5
-1.043	9.697e-5	-5.701e-5
-1.038	9.662e-5	-5.508e-5
-1.033	9.608e-5	-5.316e-5
-1.028	9.536e-5	-5.125e-5
-1.023	9.446e-5	-4.936e-5
-1.018	9.341e-5	-4.749e-5
-1.013	9.224e-5	-4.565e-5
-1.008	9.100e-5	-4.383e-5
-1.003	8.969e-5	-4.203e-5
-0.998	8.833e-5	-4.027e-5
-0.993	8.695e-5	-3.853e-5
-0.988	8.558e-5	-3.682e-5
-0.983	8.421e-5	-3.513e-5
-0.978	8.285e-5	-3.347e-5
-0.973	8.149e-5	-3.184e-5
-0.968	8.016e-5	-3.024e-5
-0.963	7.885e-5	-2.866e-5
-0.958	7.757e-5	-2.711e-5
-0.953	7.633e-5	-2.559e-5
-0.948	7.515e-5	-2.408e-5
-0.943	7.402e-5	-2.260e-5
-0.938	7.293e-5	-2.114e-5
-0.933	7.187e-5	-1.971e-5
-0.928	7.084e-5	-1.829e-5
-0.923	6.985e-5	-1.689e-5
-0.918	6.888e-5	-1.552e-5
-0.913	6.795e-5	-1.416e-5
-0.908	6.706e-5	-1.282e-5
-0.903	6.619e-5	-1.149e-5
-0.898	6.536e-5	-1.018e-5
-0.893	6.456e-5	-8.893e-6
-0.888	6.379e-5	-7.618e-6
-0.883	6.304e-5	-6.357e-6
-0.878	6.230e-5	-5.111e-6
-0.873	6.158e-5	-3.879e-6
-0.868	6.089e-5	-2.662e-6
-0.863	6.023e-5	-1.457e-6
-0.858	5.959e-5	-2.653e-7
-0.853	5.897e-5	9.141e-7
-0.848	5.837e-5	2.081e-6
-0.843	5.777e-5	3.237e-6
-0.838	5.719e-5	4.381e-6
-0.833	5.663e-5	5.513e-6
-0.828	5.608e-5	6.635e-6
-0.823	5.554e-5	7.746e-6
-0.818	5.502e-5	8.846e-6
-0.813	5.451e-5	9.936e-6
-0.808	5.400e-5	1.102e-5
-0.803	5.350e-5	1.209e-5
-0.798	5.300e-5	1.315e-5
-0.793	5.252e-5	1.420e-5
-0.788	5.204e-5	1.524e-5
-0.783	5.159e-5	1.627e-5
-0.778	5.113e-5	1.729e-5
-0.773	5.068e-5	1.831e-5
-0.768	5.022e-5	1.931e-5
-0.763	4.978e-5	2.031e-5
-0.758	4.932e-5	2.129e-5
-0.753	4.888e-5	2.227e-5
-0.748	4.843e-5	2.324e-5
-0.743	4.799e-5	2.420e-5
-0.738	4.754e-5	2.515e-5
-0.733	4.709e-5	2.609e-5
-0.728	4.662e-5	2.702e-5
-0.723	4.616e-5	2.795e-5
-0.718	4.572e-5	2.886e-5
-0.713	4.527e-5	2.977e-5
-0.708	4.483e-5	3.066e-5
-0.703	4.439e-5	3.155e-5
-0.698	4.395e-5	3.243e-5
-0.693	4.351e-5	3.330e-5
-0.688	4.308e-5	3.416e-5
-0.683	4.264e-5	3.501e-5
-0.678	4.220e-5	3.586e-5
-0.673	4.177e-5	3.669e-5
-0.668	4.134e-5	3.752e-5
-0.663	4.093e-5	3.834e-5
-0.658	4.052e-5	3.915e-5
-0.653	4.010e-5	3.995e-5
-0.648	3.969e-5	4.074e-5
-0.643	3.929e-5	4.153e-5
-0.638	3.889e-5	4.231e-5
-0.633	3.850e-5	4.308e-5
-0.628	3.813e-5	4.384e-5
-0.623	3.776e-5	4.460e-5
-0.618	3.740e-5	4.534e-5
-0.613	3.704e-5	4.608e-5
-0.608	3.668e-5	4.682e-5
-0.603	3.633e-5	4.754e-5
-0.598	3.599e-5	4.826e-5
-0.593	3.565e-5	4.898e-5
-0.588	3.532e-5	4.968e-5
-0.583	3.500e-5	5.038e-5
-0.578	3.468e-5	5.108e-5
-0.573	3.437e-5	5.177e-5
-0.568	3.407e-5	5.245e-5
-0.563	3.377e-5	5.312e-5
-0.558	3.349e-5	5.379e-5
-0.553	3.322e-5	5.446e-5
-0.548	3.294e-5	5.511e-5
-0.543	3.268e-5	5.577e-5
-0.538	3.243e-5	5.642e-5
-0.533	3.218e-5	5.706e-5
-0.528	3.193e-5	5.770e-5
-0.523	3.169e-5	5.833e-5
-0.518	3.146e-5	5.896e-5
-0.513	3.123e-5	5.959e-5
-0.508	3.100e-5	6.021e-5
-0.503	3.077e-5	6.082e-5
-0.498	3.055e-5	6.143e-5
-0.493	3.035e-5	6.204e-5
-0.488	3.016e-5	6.264e-5
-0.483	2.997e-5	6.324e-5
-0.478	2.978e-5	6.384e-5
-0.473	2.959e-5	6.443e-5
-0.468	2.940e-5	6.502e-5
-0.463	2.921e-5	6.560e-5
-0.458	2.903e-5	6.618e-5
-0.453	2.886e-5	6.676e-5
-0.448	2.870e-5	6.733e-5
-0.443	2.854e-5	6.791e-5
-0.438	2.840e-5	6.847e-5
-0.433	2.827e-5	6.904e-5
-0.428	2.814e-5	6.960e-5
-0.423	2.803e-5	7.016e-5
-0.418	2.792e-5	7.072e-5
-0.413	2.780e-5	7.128e-5
-0.408	2.769e-5	7.183e-5
-0.403	2.759e-5	7.238e-5
-0.398	2.748e-5	7.293e-5
-0.393	2.740e-5	7.348e-5
-0.388	2.732e-5	7.403e-5
-0.383	2.724e-5	7.457e-5
-0.378	2.718e-5	7.511e-5
-0.373	2.711e-5	7.566e-5
-0.368	2.705e-5	7.620e-5
-0.363	2.700e-5	7.674e-5
-0.358	2.696e-5	7.728e-5
-0.353	2.693e-5	7.782e-5
-0.348	2.690e-5	7.835e-5
-0.343	2.687e-5	7.889e-5
-0.338	2.685e-5	7.943e-5
-0.333	2.684e-5	7.996e-5
-0.328	2.683e-5	8.050e-5
-0.323	2.683e-5	8.104e-5
-0.318	2.683e-5	8.157e-5
-0.313	2.685e-5	8.211e-5
-0.308	2.688e-5	8.265e-5
-0.303	2.690e-5	8.319e-5
-0.298	2.691e-5	8.372e-5
-0.293	2.693e-5	8.426e-5
-0.288	2.694e-5	8.480e-5
-0.283	2.696e-5	8.534e-5
-0.278	2.699e-5	8.588e-5
-0.273	2.703e-5	8.642e-5
-0.268	2.707e-5	8.696e-5
-0.263	2.711e-5	8.751e-5
-0.258	2.714e-5	8.805e-5
-0.253	2.717e-5	8.859e-5
-0.248	2.722e-5	8.914e-5
-0.243	2.726e-5	8.968e-5
-0.238	2.732e-5	9.023e-5
-0.233	2.738e-5	9.078e-5
-0.228	2.744e-5	9.132e-5
-0.223	2.750e-5	9.187e-5
-0.218	2.755e-5	9.242e-5
-0.213	2.760e-5	9.298e-5
-0.208	2.765e-5	9.353e-5
-0.203	2.769e-5	9.408e-5
-0.202	2.628e-5	5.255e-7
-0.207	2.580e-5	1.042e-6
-0.212	2.536e-5	1.549e-6
-0.217	2.497e-5	2.048e-6
-0.222	2.462e-5	2.541e-6
-0.227	2.431e-5	3.027e-6
-0.232	2.403e-5	3.508e-6
-0.237	2.378e-5	3.983e-6
-0.242	2.355e-5	4.454e-6
-0.247	2.333e-5	4.921e-6
-0.252	2.313e-5	5.383e-6
-0.257	2.293e-5	5.842e-6
-0.262	2.274e-5	6.297e-6
-0.267	2.257e-5	6.748e-6
-0.272	2.239e-5	7.196e-6
-0.277	2.222e-5	7.640e-6
-0.282	2.205e-5	8.082e-6
-0.287	2.189e-5	8.519e-6
-0.292	2.173e-5	8.954e-6
-0.297	2.157e-5	9.385e-6
-0.302	2.139e-5	9.813e-6
-0.307	2.122e-5	1.024e-5
-0.312	2.106e-5	1.066e-5
-0.317	2.088e-5	1.108e-5
-0.322	2.072e-5	1.149e-5
-0.327	2.056e-5	1.190e-5
-0.332	2.040e-5	1.231e-5
-0.337	2.023e-5	1.271e-5
-0.342	2.005e-5	1.312e-5
-0.347	1.987e-5	1.351e-5
-0.352	1.968e-5	1.391e-5
-0.357	1.950e-5	1.430e-5
-0.362	1.931e-5	1.468e-5
-0.367	1.913e-5	1.507e-5
-0.372	1.894e-5	1.544e-5
-0.377	1.874e-5	1.582e-5
-0.382	1.853e-5	1.619e-5
-0.387	1.832e-5	1.656e-5
-0.392	1.811e-5	1.692e-5
-0.397	1.789e-5	1.728e-5
-0.402	1.767e-5	1.763e-5
-0.407	1.744e-5	1.798e-5
-0.412	1.721e-5	1.832e-5
-0.417	1.698e-5	1.866e-5
-0.422	1.675e-5	1.900e-5
-0.427	1.652e-5	1.933e-5
-0.432	1.629e-5	1.965e-5
-0.437	1.606e-5	1.997e-5
-0.442	1.582e-5	2.029e-5
-0.447	1.559e-5	2.060e-5
-0.452	1.536e-5	2.091e-5
-0.457	1.513e-5	2.121e-5
-0.462	1.490e-5	2.151e-5
-0.467	1.467e-5	2.180e-5
-0.472	1.445e-5	2.209e-5
-0.477	1.423e-5	2.238e-5
-0.482	1.402e-5	2.266e-5
-0.487	1.381e-5	2.293e-5
-0.492	1.360e-5	2.321e-5
-0.497	1.338e-5	2.347e-5
-0.502	1.316e-5	2.374e-5
-0.507	1.295e-5	2.400e-5
-0.512	1.274e-5	2.425e-5
-0.517	1.254e-5	2.450e-5
-0.522	1.234e-5	2.475e-5
-0.527	1.215e-5	2.499e-5
-0.532	1.195e-5	2.523e-5
-0.537	1.176e-5	2.547e-5
-0.542	1.158e-5	2.570e-5
-0.547	1.140e-5	2.592e-5
-0.552	1.122e-5	2.615e-5
-0.557	1.106e-5	2.637e-5
-0.562	1.090e-5	2.659e-5
-0.567	1.073e-5	2.680e-5
-0.572	1.058e-5	2.701e-5
-0.577	1.042e-5	2.722e-5
-0.582	1.026e-5	2.743e-5
-0.587	1.010e-5	2.763e-5
-0.592	9.946e-6	2.783e-5
-0.597	9.792e-6	2.802e-5
-0.602	9.643e-6	2.822e-5
-0.607	9.500e-6	2.841e-5
-0.612	9.350e-6	2.859e-5
-0.617	9.207e-6	2.878e-5
-0.622	9.070e-6	2.896e-5
-0.627	8.934e-6	2.914e-5
-0.632	8.807e-6	2.932e-5
-0.637	8.686e-6	2.949e-5
-0.642	8.561e-6	2.966e-5
-0.647	8.441e-6	2.983e-5
-0.652	8.321e-6	3.000e-5
-0.657	8.196e-6	3.016e-5
-0.662	8.085e-6	3.032e-5
-0.667	7.987e-6	3.048e-5
-0.672	7.888e-6	3.064e-5
-0.677	7.798e-6	3.079e-5
-0.682	7.710e-6	3.095e-5
-0.687	7.614e-6	3.110e-5
-0.692	7.521e-6	3.125e-5
-0.697	7.439e-6	3.140e-5
-0.702	7.357e-6	3.155e-5
-0.707	7.285e-6	3.169e-5
-0.712	7.222e-6	3.184e-5
-0.717	7.152e-6	3.198e-5
-0.722	7.084e-6	3.212e-5
-0.727	7.024e-6	3.226e-5
-0.732	6.962e-6	3.240e-5
-0.737	6.909e-6	3.254e-5
-0.742	6.868e-6	3.268e-5
-0.747	6.827e-6	3.281e-5
-0.752	6.798e-6	3.295e-5
-0.757	6.777e-6	3.309e-5
-0.762	6.749e-6	3.322e-5
-0.767	6.732e-6	3.335e-5
-0.772	6.723e-6	3.349e-5
-0.777	6.716e-6	3.362e-5
-0.782	6.727e-6	3.376e-5
-0.787	6.745e-6	3.389e-5
-0.792	6.755e-6	3.403e-5
-0.797	6.768e-6	3.416e-5
-0.802	6.779e-6	3.430e-5
-0.807	6.779e-6	3.443e-5
-0.812	6.791e-6	3.457e-5
-0.817	6.809e-6	3.471e-5
-0.822	6.823e-6	3.484e-5
-0.827	6.848e-6	3.498e-5
-0.832	6.870e-6	3.512e-5
-0.837	6.878e-6	3.526e-5
-0.842	6.896e-6	3.539e-5
-0.847	6.911e-6	3.553e-5
-0.852	6.922e-6	3.567e-5
-0.857	6.946e-6	3.581e-5
-0.862	6.968e-6	3.595e-5
-0.867	6.987e-6	3.609e-5
-0.872	7.016e-6	3.623e-5
-0.877	7.041e-6	3.637e-5
-0.882	7.056e-6	3.651e-5
-0.887	7.067e-6	3.665e-5
-0.892	7.068e-6	3.679e-5
-0.897	7.066e-6	3.693e-5
-0.902	7.071e-6	3.708e-5
-0.907	7.074e-6	3.722e-5
-0.912	7.072e-6	3.736e-5
-0.917	7.067e-6	3.750e-5
-0.922	7.052e-6	3.764e-5
-0.927	7.029e-6	3.778e-5
-0.932	7.008e-6	3.792e-5
-0.937	6.990e-6	3.806e-5
-0.942	6.970e-6	3.820e-5
-0.947	6.955e-6	3.834e-5
-0.952	6.939e-6	3.848e-5
-0.957	6.915e-6	3.862e-5
-0.962	6.888e-6	3.875e-5
-0.967	6.855e-6	3.889e-5
-0.972	6.811e-6	3.903e-5
-0.977	6.764e-6	3.916e-5
-0.982	6.715e-6	3.930e-5
-0.987	6.655e-6	3.943e-5
-0.992	6.586e-6	3.956e-5
-0.997	6.507e-6	3.969e-5
-1.002	6.414e-6	3.982e-5
-1.007	6.312e-6	3.995e-5
-1.012	6.204e-6	4.007e-5
-1.017	6.082e-6	4.019e-5
-1.022	5.943e-6	4.031e-5
-1.027	5.795e-6	4.043e-5
-1.032	5.633e-6	4.054e-5
-1.037	5.460e-6	4.065e-5
-1.042	5.282e-6	4.076e-5
-1.047	5.089e-6	4.086e-5
-1.052	4.877e-6	4.095e-5
-1.057	4.657e-6	4.105e-5
-1.062	4.424e-6	4.114e-5
-1.067	4.180e-6	4.122e-5
-1.072	3.926e-6	4.130e-5
-1.077	3.663e-6	4.137e-5
-1.082	3.382e-6	4.144e-5
-1.087	3.085e-6	4.150e-5
-1.092	2.779e-6	4.156e-5
-1.097	2.464e-6	4.161e-5
-1.102	2.133e-6	4.165e-5
-1.107	1.800e-6	4.168e-5
-1.112	1.455e-6	4.171e-5
-1.117	1.092e-6	4.174e-5
-1.122	7.245e-7	4.175e-5
-1.127	3.489e-7	4.176e-5
-1.132	-3.960e-8	4.176e-5
-1.137	-4.260e-7	4.175e-5
-1.142	-8.175e-7	4.173e-5
-1.147	-1.219e-6	4.171e-5
-1.152	-1.621e-6	4.167e-5
-1.157	-2.036e-6	4.163e-5
-1.162	-2.468e-6	4.158e-5
-1.167	-2.901e-6	4.153e-5
-1.172	-3.340e-6	4.146e-5
-1.177	-3.785e-6	4.138e-5
-1.182	-4.226e-6	4.130e-5
-1.187	-4.683e-6	4.121e-5
-1.192	-5.164e-6	4.110e-5
-1.197	-5.654e-6	4.099e-5
-1.202	-6.168e-6	4.087e-5
-1.207	-6.707e-6	4.073e-5
-1.212	-7.264e-6	4.059e-5
-1.217	-7.846e-6	4.043e-5
-1.222	-8.457e-6	4.026e-5
-1.227	-9.090e-6	4.008e-5
-1.232	-9.767e-6	3.988e-5
-1.237	-1.050e-5	3.967e-5
-1.242	-1.128e-5	3.945e-5
-1.247	-1.211e-5	3.921e-5
-1.252	-1.300e-5	3.895e-5
-1.257	-1.394e-5	3.867e-5
-1.262	-1.494e-5	3.837e-5
-1.267	-1.601e-5	3.805e-5
-1.272	-1.717e-5	3.770e-5
-1.277	-1.842e-5	3.734e-5
-1.282	-1.976e-5	3.694e-5
-1.287	-2.118e-5	3.652e-5
-1.292	-2.270e-5	3.606e-5
-1.297	-2.431e-5	3.558e-5
-1.302	-2.607e-5	3.506e-5
-1.307	-2.796e-5	3.450e-5
-1.312	-2.999e-5	3.390e-5
-1.317	-3.217e-5	3.325e-5
-1.322	-3.445e-5	3.256e-5
-1.327	-3.687e-5	3.183e-5
-1.332	-3.945e-5	3.104e-5
-1.337	-4.218e-5	3.019e-5
-1.342	-4.509e-5	2.929e-5
-1.347	-4.819e-5	2.833e-5
-1.352	-5.142e-5	2.730e-5
-1.357	-5.481e-5	2.620e-5
-1.362	-5.837e-5	2.504e-5
-1.367	-6.206e-5	2.380e-5
-1.372	-6.589e-5	2.248e-5
-1.377	-6.987e-5	2.108e-5
-1.382	-7.397e-5	1.960e-5
-1.387	-7.817e-5	1.804e-5
-1.392	-8.242e-5	1.639e-5
-1.397	-8.674e-5	1.465e-5
-1.402	-9.108e-5	1.283e-5
-1.407	-9.546e-5	1.092e-5
-1.412	-9.987e-5	8.926e-6
-1.417	-1.042e-4	6.842e-6
-1.422	-1.085e-4	4.672e-6
-1.427	-1.127e-4	2.418e-6
-1.432	-1.167e-4	8.404e-8
-1.437	-1.205e-4	-2.327e-6
-1.442	-1.242e-4	-4.810e-6
-1.447	-1.276e-4	-7.362e-6
-1.452	-1.308e-4	-9.978e-6
-1.457	-1.337e-4	-1.265e-5
-1.462	-1.362e-4	-1.538e-5
-1.467	-1.384e-4	-1.814e-5
-1.472	-1.404e-4	-2.095e-5
-1.477	-1.420e-4	-2.379e-5
-1.482	-1.432e-4	-2.665e-5
-1.487	-1.441e-4	-2.954e-5
-1.492	-1.446e-4	-3.243e-5
-1.497	-1.448e-4	-3.532e-5
-1.502	-1.448e-4	-3.822e-5
-1.507	-1.445e-4	-4.111e-5
-1.512	-1.440e-4	-4.399e-5
-1.517	-1.432e-4	-4.685e-5
-1.522	-1.422e-4	-4.970e-5
-1.527	-1.410e-4	-5.252e-5
-1.532	-1.398e-4	-5.531e-5
-1.537	-1.384e-4	-5.808e-5
-1.542	-1.370e-4	-6.082e-5
-1.547	-1.355e-4	-6.353e-5
-1.552	-1.339e-4	-6.621e-5
-1.557	-1.323e-4	-6.885e-5
-1.562	-1.307e-4	-7.147e-5
-1.567	-1.291e-4	-7.405e-5
-1.572	-1.275e-4	-7.660e-5
-1.577	-1.259e-4	-7.912e-5
-1.582	-1.243e-4	-8.161e-5
-1.587	-1.228e-4	-8.406e-5
-1.592	-1.213e-4	-8.649e-5
-1.597	-1.198e-4	-8.888e-5
-1.602	-1.183e-4	-9.125e-5
-1.607	-1.169e-4	-9.359e-5
-1.612	-1.155e-4	-9.590e-5
-1.617	-1.141e-4	-9.818e-5
-1.622	-1.128e-4	-1.004e-4
-1.627	-1.115e-4	-1.027e-4
-1.632	-1.103e-4	-1.049e-4
-1.637	-1.091e-4	-1.071e-4
-1.642	-1.079e-4	-1.092e-4
-1.647	-1.068e-4	-1.113e-4
-1.652	-1.057e-4	-1.135e-4
-1.657	-1.047e-4	-1.156e-4
-1.662	-1.037e-4	-1.176e-4
-1.667	-1.027e-4	-1.197e-4
-1.672	-1.018e-4	-1.217e-4
-1.677	-1.009e-4	-1.237e-4
-1.682	-1.000e-4	-1.257e-4
-1.687	-9.921e-5	-1.277e-4
-1.692	-9.842e-5	-1.297e-4
-1.697	-9.768e-5	-1.316e-4
-1.702	-9.698e-5	-1.336e-4
-1.707	-9.632e-5	-1.355e-4
-1.712	-9.570e-5	-1.374e-4
-1.717	-9.511e-5	-1.393e-4
-1.722	-9.453e-5	-1.412e-4
-1.727	-9.400e-5	-1.431e-4
-1.732	-9.349e-5	-1.450e-4
-1.737	-9.302e-5	-1.468e-4
-1.742	-9.261e-5	-1.487e-4
-1.747	-9.222e-5	-1.505e-4
-1.752	-9.185e-5	-1.524e-4
-1.757	-9.152e-5	-1.542e-4
-1.762	-9.120e-5	-1.560e-4
-1.767	-9.092e-5	-1.578e-4
-1.772	-9.068e-5	-1.596e-4
-1.777	-9.047e-5	-1.615e-4
-1.782	-9.029e-5	-1.633e-4
-1.787	-9.014e-5	-1.651e-4
-1.792	-9.002e-5	-1.669e-4
-1.797	-8.991e-5	-1.687e-4
-1.802	-8.983e-5	-1.705e-4
-1.807	-8.978e-5	-1.723e-4
-1.812	-8.976e-5	-1.740e-4
-1.817	-8.978e-5	-1.758e-4
-1.822	-8.984e-5	-1.776e-4
-1.827	-8.992e-5	-1.794e-4
-1.832	-9.005e-5	-1.812e-4
-1.837	-9.020e-5	-1.830e-4
-1.842	-9.037e-5	-1.849e-4
-1.847	-9.059e-5	-1.867e-4
-1.852	-9.084e-5	-1.885e-4
-1.857	-9.112e-5	-1.903e-4
-1.862	-9.146e-5	-1.921e-4
-1.867	-9.183e-5	-1.940e-4
-1.872	-9.223e-5	-1.958e-4
-1.877	-9.266e-5	-1.977e-4
-1.882	-9.312e-5	-1.995e-4
-1.887	-9.361e-5	-2.014e-4
-1.892	-9.414e-5	-2.033e-4
-1.897	-9.471e-5	-2.052e-4
-1.898	-9.069e-5	-1.814e-6
-1.893	-8.837e-5	-3.581e-6
-1.888	-8.625e-5	-5.306e-6
-1.883	-8.433e-5	-6.993e-6
-1.878	-8.264e-5	-8.646e-6
-1.873	-8.113e-5	-1.027e-5
-1.868	-7.973e-5	-1.186e-5
-1.863	-7.842e-5	-1.343e-5
-1.858	-7.720e-5	-1.498e-5
-1.853	-7.606e-5	-1.650e-5
-1.848	-7.499e-5	-1.800e-5
-1.843	-7.398e-5	-1.948e-5
-1.838	-7.301e-5	-2.094e-5
-1.833	-7.209e-5	-2.238e-5
-1.828	-7.120e-5	-2.380e-5
-1.823	-7.035e-5	-2.521e-5
-1.818	-6.953e-5	-2.660e-5
-1.813	-6.876e-5	-2.798e-5
-1.808	-6.802e-5	-2.934e-5
-1.803	-6.732e-5	-3.068e-5
-1.798	-6.664e-5	-3.201e-5
-1.793	-6.596e-5	-3.333e-5
-1.788	-6.531e-5	-3.464e-5
-1.783	-6.469e-5	-3.593e-5
-1.778	-6.408e-5	-3.722e-5
-1.773	-6.350e-5	-3.849e-5
-1.768	-6.293e-5	-3.974e-5
-1.763	-6.235e-5	-4.099e-5
-1.758	-6.177e-5	-4.223e-5
-1.753	-6.122e-5	-4.345e-5
-1.748	-6.068e-5	-4.466e-5
-1.743	-6.017e-5	-4.587e-5
-1.738	-5.966e-5	-4.706e-5
-1.733	-5.912e-5	-4.824e-5
-1.728	-5.858e-5	-4.941e-5
-1.723	-5.805e-5	-5.058e-5
-1.718	-5.751e-5	-5.173e-5
-1.713	-5.699e-5	-5.287e-5
-1.708	-5.647e-5	-5.400e-5
-1.703	-5.594e-5	-5.511e-5
-1.698	-5.542e-5	-5.622e-5
-1.693	-5.488e-5	-5.732e-5
-1.688	-5.435e-5	-5.841e-5
-1.683	-5.381e-5	-5.948e-5
-1.678	-5.327e-5	-6.055e-5
-1.673	-5.273e-5	-6.160e-5
-1.668	-5.220e-5	-6.265e-5
-1.663	-5.166e-5	-6.368e-5
-1.658	-5.113e-5	-6.470e-5
-1.653	-5.059e-5	-6.571e-5
-1.648	-5.005e-5	-6.672e-5
-1.643	-4.951e-5	-6.771e-5
-1.638	-4.897e-5	-6.869e-5
-1.633	-4.845e-5	-6.965e-5
-1.628	-4.794e-5	-7.061e-5
-1.623	-4.743e-5	-7.156e-5
-1.618	-4.692e-5	-7.250e-5
-1.613	-4.640e-5	-7.343e-5
-1.608	-4.588e-5	-7.435e-5
-1.603	-4.537e-5	-7.525e-5
-1.598	-4.485e-5	-7.615e-5
-1.593	-4.434e-5	-7.704e-5
-1.588	-4.383e-5	-7.791e-5
-1.583	-4.331e-5	-7.878e-5
-1.578	-4.280e-5	-7.964e-5
-1.573	-4.228e-5	-8.048e-5
-1.568	-4.173e-5	-8.132e-5
-1.563	-4.116e-5	-8.214e-5
-1.558	-4.057e-5	-8.295e-5
-1.553	-3.994e-5	-8.375e-5
-1.548	-3.931e-5	-8.454e-5
-1.543	-3.866e-5	-8.531e-5
-1.538	-3.799e-5	-8.607e-5
-1.533	-3.731e-5	-8.681e-5
-1.528	-3.658e-5	-8.755e-5
-1.523	-3.583e-5	-8.826e-5
-1.518	-3.507e-5	-8.896e-5
-1.513	-3.427e-5	-8.965e-5
-1.508	-3.346e-5	-9.032e-5
-1.503	-3.264e-5	-9.097e-5
-1.498	-3.177e-5	-9.161e-5
-1.493	-3.089e-5	-9.223e-5
-1.488	-2.999e-5	-9.283e-5
-1.483	-2.906e-5	-9.341e-5
-1.478	-2.809e-5	-9.397e-5
-1.473	-2.712e-5	-9.451e-5
-1.468	-2.614e-5	-9.503e-5
-1.463	-2.517e-5	-9.554e-5
-1.458	-2.420e-5	-9.602e-5
-1.453	-2.320e-5	-9.648e-5
-1.448	-2.219e-5	-9.693e-5
-1.443	-2.118e-5	-9.735e-5
-1.438	-2.017e-5	-9.776e-5
-1.433	-1.919e-5	-9.814e-5
-1.428	-1.822e-5	-9.850e-5
-1.423	-1.725e-5	-9.885e-5
-1.418	-1.628e-5	-9.917e-5
-1.413	-1.534e-5	-9.948e-5
-1.408	-1.441e-5	-9.977e-5
-1.403	-1.351e-5	-1.000e-4
-1.398	-1.263e-5	-1.003e-4
-1.393	-1.176e-5	-1.005e-4
-1.388	-1.092e-5	-1.007e-4
-1.383	-1.009e-5	-1.009e-4
-1.378	-9.279e-6	-1.011e-4
-1.373	-8.491e-6	-1.013e-4
-1.368	-7.738e-6	-1.015e-4
-1.363	-7.011e-6	-1.016e-4
-1.358	-6.303e-6	-1.017e-4
-1.353	-5.618e-6	-1.018e-4
-1.348	-4.951e-6	-1.019e-4
-1.343	-4.301e-6	-1.020e-4
-1.338	-3.676e-6	-1.021e-4
-1.333	-3.065e-6	-1.022e-4
-1.328	-2.465e-6	-1.022e-4
-1.323	-1.883e-6	-1.022e-4
-1.318	-1.308e-6	-1.023e-4
-1.313	-7.384e-7	-1.023e-4
-1.308	-1.806e-7	-1.023e-4
-1.303	3.792e-7	-1.023e-4
-1.298	9.464e-7	-1.023e-4
-1.293	1.514e-6	-1.022e-4
-1.288	2.101e-6	-1.022e-4
-1.283	2.700e-6	-1.021e-4
-1.278	3.306e-6	-1.021e-4
-1.273	3.935e-6	-1.020e-4
-1.268	4.598e-6	-1.019e-4
-1.263	5.297e-6	-1.018e-4
-1.258	6.053e-6	-1.017e-4
-1.253	6.866e-6	-1.015e-4
-1.248	7.731e-6	-1.014e-4
-1.243	8.662e-6	-1.012e-4
-1.238	9.666e-6	-1.010e-4
-1.233	1.074e-5	-1.008e-4
-1.228	1.193e-5	-1.006e-4
-1.223	1.324e-5	-1.003e-4
-1.218	1.466e-5	-1.000e-4
-1.213	1.622e-5	-9.968e-5
-1.208	1.791e-5	-9.932e-5
-1.203	1.970e-5	-9.892e-5
-1.198	2.163e-5	-9.849e-5
-1.193	2.371e-5	-9.802e-5
-1.188	2.593e-5	-9.750e-5
-1.183	2.835e-5	-9.693e-5
-1.178	3.095e-5	-9.631e-5
-1.173	3.369e-5	-9.564e-5
-1.168	3.658e-5	-9.491e-5
-1.163	3.959e-5	-9.412e-5
-1.158	4.270e-5	-9.326e-5
-1.153	4.598e-5	-9.234e-5
-1.148	4.939e-5	-9.135e-5
-1.143	5.292e-5	-9.030e-5
-1.138	5.655e-5	-8.916e-5
-1.133	6.019e-5	-8.796e-5
-1.128	6.381e-5	-8.668e-5
-1.123	6.742e-5	-8.534e-5
-1.118	7.101e-5	-8.392e-5
-1.113	7.456e-5	-8.242e-5
-1.108	7.805e-5	-8.086e-5
-1.103	8.137e-5	-7.924e-5
-1.098	8.448e-5	-7.755e-5
-1.093	8.737e-5	-7.580e-5
-1.088	9.003e-5	-7.400e-5
-1.083	9.244e-5	-7.215e-5
-1.078	9.461e-5	-7.026e-5
-1.073	9.649e-5	-6.833e-5
-1.068	9.807e-5	-6.637e-5
-1.063	9.932e-5	-6.438e-5
-1.058	1.002e-4	-6.238e-5
-1.053	1.008e-4	-6.036e-5
-1.048	1.010e-4	-5.834e-5
-1.043	1.010e-4	-5.632e-5
-1.038	1.008e-4	-5.430e-5
-1.033	1.004e-4	-5.229e-5
-1.028	9.973e-5	-5.030e-5
-1.023	9.885e-5	-4.832e-5
-1.018	9.781e-5	-4.637e-5
-1.013	9.666e-5	-4.443e-5
-1.008	9.539e-5	-4.253e-5
-1.003	9.407e-5	-4.064e-5
-0.998	9.270e-5	-3.879e-5
-0.993	9.127e-5	-3.697e-5
-0.988	8.982e-5	-3.517e-5
-0.983	8.835e-5	-3.340e-5
-0.978	8.686e-5	-3.167e-5
-0.973	8.539e-5	-2.996e-5
-0.968	8.393e-5	-2.828e-5
-0.963	8.248e-5	-2.663e-5
-0.958	8.107e-5	-2.501e-5
-0.953	7.967e-5	-2.341e-5
-0.948	7.830e-5	-2.185e-5
-0.943	7.698e-5	-2.031e-5
-0.938	7.568e-5	-1.880e-5
-0.933	7.443e-5	-1.731e-5
-0.928	7.320e-5	-1.584e-5
-0.923	7.201e-5	-1.440e-5
-0.918	7.085e-5	-1.299e-5
-0.913	6.973e-5	-1.159e-5
-0.908	6.864e-5	-1.022e-5
-0.903	6.759e-5	-8.866e-6
-0.898	6.658e-5	-7.535e-6
-0.893	6.560e-5	-6.223e-6
-0.888	6.465e-5	-4.930e-6
-0.883	6.373e-5	-3.655e-6
-0.878	6.284e-5	-2.398e-6
-0.873	6.197e-5	-1.159e-6
-0.868	6.114e-5	6.410e-8
-0.863	6.033e-5	1.271e-6
-0.858	5.955e-5	2.462e-6
-0.853	5.878e-5	3.637e-6
-0.848	5.804e-5	4.798e-6
-0.843	5.731e-5	5.944e-6
-0.838	5.660e-5	7.076e-6
-0.833	5.592e-5	8.195e-6
-0.828	5.526e-5	9.300e-6
-0.823	5.462e-5	1.039e-5
-0.818	5.399e-5	1.147e-5
-0.813	5.337e-5	1.254e-5
-0.808	5.276e-5	1.359e-5
-0.803	5.217e-5	1.464e-5
-0.798	5.159e-5	1.567e-5
-0.793	5.103e-5	1.669e-5
-0.788	5.049e-5	1.770e-5
-0.783	4.996e-5	1.870e-5
-0.778	4.944e-5	1.969e-5
-0.773	4.892e-5	2.067e-5
-0.768	4.840e-5	2.163e-5
-0.763	4.789e-5	2.259e-5
-0.758	4.739e-5	2.354e-5
-0.753	4.691e-5	2.448e-5
-0.748	4.644e-5	2.541e-5
-0.743	4.597e-5	2.633e-5
-0.738	4.550e-5	2.724e-5
-0.733	4.504e-5	2.814e-5
-0.728	4.458e-5	2.903e-5
-0.723	4.413e-5	2.991e-5
-0.718	4.370e-5	3.078e-5
-0.713	4.327e-5	3.165e-5
-0.708	4.284e-5	3.251e-5
-0.703	4.243e-5	3.336e-5
-0.698	4.201e-5	3.420e-5
-0.693	4.160e-5	3.503e-5
-0.688	4.120e-5	3.585e-5
-0.683	4.080e-5	3.667e-5
-0.678	4.041e-5	3.748e-5
-0.673	4.003e-5	3.828e-5
-0.668	3.965e-5	3.907e-5
-0.663	3.928e-5	3.986e-5
-0.658	3.892e-5	4.063e-5
-0.653	3.856e-5	4.140e-5
-0.648	3.821e-5	4.217e-5
-0.643	3.787e-5	4.293e-5
-0.638	3.754e-5	4.368e-5
-0.633	3.722e-5	4.442e-5
-0.628	3.691e-5	4.516e-5
-0.623	3.659e-5	4.589e-5
-0.618	3.628e-5	4.662e-5
-0.613	3.598e-5	4.734e-5
-0.608	3.567e-5	4.805e-5
-0.603	3.538e-5	4.876e-5
-0.598	3.510e-5	4.946e-5
-0.593	3.482e-5	5.016e-5
-0.588	3.456e-5	5.085e-5
-0.583	3.430e-5	5.153e-5
-0.578	3.404e-5	5.221e-5
-0.573	3.378e-5	5.289e-5
-0.568	3.354e-5	5.356e-5
-0.563	3.329e-5	5.423e-5
-0.558	3.306e-5	5.489e-5
-0.553	3.283e-5	5.554e-5
-0.548	3.260e-5	5.620e-5
-0.543	3.237e-5	5.684e-5
-0.538	3.215e-5	5.749e-5
-0.533	3.193e-5	5.813e-5
-0.528	3.171e-5	5.876e-5
-0.523	3.151e-5	5.939e-5
-0.518	3.131e-5	6.002e-5
-0.513	3.111e-5	6.064e-5
-0.508	3.092e-5	6.126e-5
-0.503	3.072e-5	6.187e-5
-0.498	3.052e-5	6.248e-5
-0.493	3.034e-5	6.309e-5
-0.488	3.015e-5	6.369e-5
-0.483	2.998e-5	6.429e-5
-0.478	2.981e-5	6.489e-5
-0.473	2.965e-5	6.548e-5
-0.468	2.947e-5	6.607e-5
-0.463	2.930e-5	6.666e-5
-0.458	2.913e-5	6.724e-5
-0.453	2.898e-5	6.782e-5
-0.448	2.883e-5	6.839e-5
-0.443	2.869e-5	6.897e-5
-0.438	2.855e-5	6.954e-5
-0.433	2.841e-5	7.011e-5
-0.428	2.827e-5	7.067e-5
-0.423	2.813e-5	7.124e-5
-0.418	2.800e-5	7.180e-5
-0.413	2.788e-5	7.235e-5
-0.408	2.776e-5	7.291e-5
-0.403	2.765e-5	7.346e-5
-0.398	2.753e-5	7.401e-5
-0.393	2.742e-5	7.456e-5
-0.388	2.731e-5	7.511e-5
-0.383	2.721e-5	7.565e-5
-0.378	2.710e-5	7.619e-5
-0.373	2.700e-5	7.673e-5
-0.368	2.690e-5	7.727e-5
-0.363	2.680e-5	7.781e-5
-0.358	2.671e-5	7.834e-5
-0.353	2.661e-5	7.887e-5
-0.348	2.652e-5	7.940e-5
-0.343	2.644e-5	7.993e-5
-0.338	2.636e-5	8.046e-5
-0.333	2.629e-5	8.099e-5
-0.328	2.621e-5	8.151e-5
-0.323	2.614e-5	8.203e-5
-0.318	2.607e-5	8.255e-5
-0.313	2.601e-5	8.307e-5
-0.308	2.595e-5	8.359e-5
-0.303	2.589e-5	8.411e-5
-0.298	2.583e-5	8.463e-5
-0.293	2.577e-5	8.514e-5
-0.288	2.571e-5	8.566e-5
-0.283	2.567e-5	8.617e-5
-0.278	2.563e-5	8.668e-5
-0.273	2.559e-5	8.719e-5
-0.268	2.555e-5	8.771e-5
-0.263	2.551e-5	8.822e-5
-0.258	2.548e-5	8.873e-5
-0.253	2.545e-5	8.923e-5
-0.248	2.544e-5	8.974e-5
-0.243	2.542e-5	9.025e-5
-0.238	2.541e-5	9.076e-5
-0.233	2.540e-5	9.127e-5
-0.228	2.539e-5	9.178e-5
-0.223	2.539e-5	9.228e-5
-0.218	2.540e-5	9.279e-5
-0.213	2.540e-5	9.330e-5
-0.208	2.541e-5	9.381e-5
-0.203	2.543e-5	9.432e-5
