Oct. 21, 2019   14:58:00
Cyclic Voltammetry
File: cv_tmpz_scan_rates_re2_005.bin
Data Source:  Experiment
Instrument Model:  CHI760E
Data Proc:  Smoothing
Header: 
Note: 

Init E (V) = -0.5
High E (V) = -0.5
Low E (V) = -1.9
Init P/N = N
Scan Rate (V/s) = 0.25
Segment = 6
Sample Interval (V) = 0.005
Quiet Time (sec) = 2
Sensitivity (A/V) = 1e-4

Segment 1:
Ep = -1.667V
ip = -1.302e-4A
Eh = -5.850e-5C

Segment 2:
Ep = -1.168V
ip = 9.114e-5A
Ah = 3.642e-5C

Segment 3:
Ep = -1.662V
ip = -1.358e-4A
Ah = -5.784e-5C

Segment 4:
Ep = -1.163V
ip = 8.999e-5A
Ah = 3.628e-5C

Segment 5:
Ep = -1.662V
ip = -1.247e-4A
Ah = -5.569e-5C

Segment 6:
Ep = -1.163V
ip = 1.017e-4A
Ah = 4.062e-5C

Potential/V	Current/A

-0.502	6.423e-6	1.285e-7
-0.507	6.263e-6	2.537e-7
-0.512	6.116e-6	3.760e-7
-0.517	5.984e-6	4.957e-7
-0.522	5.866e-6	6.130e-7
-0.527	5.761e-6	7.283e-7
-0.532	5.667e-6	8.416e-7
-0.537	5.582e-6	9.532e-7
-0.542	5.495e-6	1.063e-6
-0.547	5.408e-6	1.171e-6
-0.552	5.323e-6	1.278e-6
-0.557	5.237e-6	1.382e-6
-0.562	5.160e-6	1.486e-6
-0.567	5.094e-6	1.588e-6
-0.572	5.031e-6	1.688e-6
-0.577	4.975e-6	1.788e-6
-0.582	4.915e-6	1.886e-6
-0.587	4.850e-6	1.983e-6
-0.592	4.785e-6	2.079e-6
-0.597	4.724e-6	2.173e-6
-0.602	4.665e-6	2.266e-6
-0.607	4.614e-6	2.359e-6
-0.612	4.569e-6	2.450e-6
-0.617	4.523e-6	2.541e-6
-0.622	4.481e-6	2.630e-6
-0.627	4.440e-6	2.719e-6
-0.632	4.399e-6	2.807e-6
-0.637	4.363e-6	2.894e-6
-0.642	4.329e-6	2.981e-6
-0.647	4.292e-6	3.067e-6
-0.652	4.258e-6	3.152e-6
-0.657	4.224e-6	3.236e-6
-0.662	4.191e-6	3.320e-6
-0.667	4.166e-6	3.403e-6
-0.672	4.143e-6	3.486e-6
-0.677	4.124e-6	3.569e-6
-0.682	4.114e-6	3.651e-6
-0.687	4.104e-6	3.733e-6
-0.692	4.093e-6	3.815e-6
-0.697	4.084e-6	3.897e-6
-0.702	4.070e-6	3.978e-6
-0.707	4.056e-6	4.059e-6
-0.712	4.052e-6	4.140e-6
-0.717	4.050e-6	4.221e-6
-0.722	4.050e-6	4.302e-6
-0.727	4.054e-6	4.383e-6
-0.732	4.049e-6	4.464e-6
-0.737	4.039e-6	4.545e-6
-0.742	4.031e-6	4.626e-6
-0.747	4.023e-6	4.706e-6
-0.752	4.020e-6	4.787e-6
-0.757	4.026e-6	4.867e-6
-0.762	4.032e-6	4.948e-6
-0.767	4.034e-6	5.028e-6
-0.772	4.031e-6	5.109e-6
-0.777	4.024e-6	5.190e-6
-0.782	4.016e-6	5.270e-6
-0.787	4.017e-6	5.350e-6
-0.792	4.023e-6	5.431e-6
-0.797	4.032e-6	5.511e-6
-0.802	4.044e-6	5.592e-6
-0.807	4.054e-6	5.673e-6
-0.812	4.059e-6	5.754e-6
-0.817	4.066e-6	5.836e-6
-0.822	4.071e-6	5.917e-6
-0.827	4.076e-6	5.999e-6
-0.832	4.083e-6	6.080e-6
-0.837	4.088e-6	6.162e-6
-0.842	4.093e-6	6.244e-6
-0.847	4.101e-6	6.326e-6
-0.852	4.104e-6	6.408e-6
-0.857	4.103e-6	6.490e-6
-0.862	4.098e-6	6.572e-6
-0.867	4.093e-6	6.654e-6
-0.872	4.092e-6	6.736e-6
-0.877	4.090e-6	6.818e-6
-0.882	4.080e-6	6.899e-6
-0.887	4.061e-6	6.980e-6
-0.892	4.036e-6	7.061e-6
-0.897	4.003e-6	7.141e-6
-0.902	3.967e-6	7.221e-6
-0.907	3.925e-6	7.299e-6
-0.912	3.878e-6	7.377e-6
-0.917	3.830e-6	7.453e-6
-0.922	3.781e-6	7.529e-6
-0.927	3.723e-6	7.603e-6
-0.932	3.658e-6	7.676e-6
-0.937	3.592e-6	7.748e-6
-0.942	3.527e-6	7.819e-6
-0.947	3.463e-6	7.888e-6
-0.952	3.392e-6	7.956e-6
-0.957	3.308e-6	8.022e-6
-0.962	3.212e-6	8.086e-6
-0.967	3.109e-6	8.148e-6
-0.972	3.001e-6	8.208e-6
-0.977	2.890e-6	8.266e-6
-0.982	2.778e-6	8.322e-6
-0.987	2.659e-6	8.375e-6
-0.992	2.542e-6	8.426e-6
-0.997	2.426e-6	8.474e-6
-1.002	2.304e-6	8.520e-6
-1.007	2.176e-6	8.564e-6
-1.012	2.041e-6	8.605e-6
-1.017	1.896e-6	8.643e-6
-1.022	1.751e-6	8.678e-6
-1.027	1.611e-6	8.710e-6
-1.032	1.473e-6	8.739e-6
-1.037	1.337e-6	8.766e-6
-1.042	1.204e-6	8.790e-6
-1.047	1.063e-6	8.812e-6
-1.052	9.164e-7	8.830e-6
-1.057	7.703e-7	8.845e-6
-1.062	6.227e-7	8.858e-6
-1.067	4.808e-7	8.867e-6
-1.072	3.483e-7	8.874e-6
-1.077	2.151e-7	8.879e-6
-1.082	8.107e-8	8.880e-6
-1.087	-5.404e-8	8.879e-6
-1.092	-1.987e-7	8.875e-6
-1.097	-3.461e-7	8.868e-6
-1.102	-4.923e-7	8.858e-6
-1.107	-6.411e-7	8.846e-6
-1.112	-7.883e-7	8.830e-6
-1.117	-9.335e-7	8.811e-6
-1.122	-1.089e-6	8.789e-6
-1.127	-1.252e-6	8.764e-6
-1.132	-1.421e-6	8.736e-6
-1.137	-1.597e-6	8.704e-6
-1.142	-1.774e-6	8.668e-6
-1.147	-1.943e-6	8.630e-6
-1.152	-2.113e-6	8.587e-6
-1.157	-2.283e-6	8.542e-6
-1.162	-2.454e-6	8.493e-6
-1.167	-2.634e-6	8.440e-6
-1.172	-2.818e-6	8.384e-6
-1.177	-3.001e-6	8.324e-6
-1.182	-3.183e-6	8.260e-6
-1.187	-3.367e-6	8.193e-6
-1.192	-3.553e-6	8.122e-6
-1.197	-3.747e-6	8.047e-6
-1.202	-3.951e-6	7.968e-6
-1.207	-4.164e-6	7.884e-6
-1.212	-4.381e-6	7.797e-6
-1.217	-4.602e-6	7.705e-6
-1.222	-4.823e-6	7.608e-6
-1.227	-5.049e-6	7.507e-6
-1.232	-5.281e-6	7.402e-6
-1.237	-5.520e-6	7.291e-6
-1.242	-5.767e-6	7.176e-6
-1.247	-6.023e-6	7.055e-6
-1.252	-6.288e-6	6.930e-6
-1.257	-6.560e-6	6.798e-6
-1.262	-6.837e-6	6.662e-6
-1.267	-7.112e-6	6.519e-6
-1.272	-7.385e-6	6.372e-6
-1.277	-7.664e-6	6.218e-6
-1.282	-7.950e-6	6.059e-6
-1.287	-8.249e-6	5.894e-6
-1.292	-8.559e-6	5.723e-6
-1.297	-8.871e-6	5.546e-6
-1.302	-9.187e-6	5.362e-6
-1.307	-9.514e-6	5.172e-6
-1.312	-9.848e-6	4.975e-6
-1.317	-1.020e-5	4.771e-6
-1.322	-1.056e-5	4.560e-6
-1.327	-1.093e-5	4.341e-6
-1.332	-1.132e-5	4.115e-6
-1.337	-1.173e-5	3.880e-6
-1.342	-1.215e-5	3.637e-6
-1.347	-1.261e-5	3.385e-6
-1.352	-1.308e-5	3.123e-6
-1.357	-1.357e-5	2.852e-6
-1.362	-1.410e-5	2.570e-6
-1.367	-1.465e-5	2.277e-6
-1.372	-1.522e-5	1.973e-6
-1.377	-1.583e-5	1.656e-6
-1.382	-1.648e-5	1.326e-6
-1.387	-1.718e-5	9.828e-7
-1.392	-1.792e-5	6.243e-7
-1.397	-1.873e-5	2.498e-7
-1.402	-1.958e-5	-1.419e-7
-1.407	-2.050e-5	-5.519e-7
-1.412	-2.148e-5	-9.814e-7
-1.417	-2.253e-5	-1.432e-6
-1.422	-2.365e-5	-1.905e-6
-1.427	-2.486e-5	-2.402e-6
-1.432	-2.617e-5	-2.926e-6
-1.437	-2.758e-5	-3.477e-6
-1.442	-2.911e-5	-4.059e-6
-1.447	-3.077e-5	-4.675e-6
-1.452	-3.255e-5	-5.326e-6
-1.457	-3.446e-5	-6.015e-6
-1.462	-3.651e-5	-6.745e-6
-1.467	-3.870e-5	-7.519e-6
-1.472	-4.106e-5	-8.341e-6
-1.477	-4.361e-5	-9.213e-6
-1.482	-4.633e-5	-1.014e-5
-1.487	-4.926e-5	-1.112e-5
-1.492	-5.239e-5	-1.217e-5
-1.497	-5.573e-5	-1.329e-5
-1.502	-5.930e-5	-1.447e-5
-1.507	-6.309e-5	-1.573e-5
-1.512	-6.709e-5	-1.708e-5
-1.517	-7.133e-5	-1.850e-5
-1.522	-7.581e-5	-2.002e-5
-1.527	-8.053e-5	-2.163e-5
-1.532	-8.551e-5	-2.334e-5
-1.537	-9.074e-5	-2.515e-5
-1.542	-9.620e-5	-2.708e-5
-1.547	-1.019e-4	-2.912e-5
-1.552	-1.078e-4	-3.127e-5
-1.557	-1.139e-4	-3.355e-5
-1.562	-1.201e-4	-3.595e-5
-1.567	-1.264e-4	-3.848e-5
-1.572	-1.328e-4	-4.114e-5
-1.577	-1.392e-4	-4.392e-5
-1.582	-1.454e-4	-4.683e-5
-1.587	-1.514e-4	-4.986e-5
-1.592	-1.570e-4	-5.300e-5
-1.597	-1.625e-4	-5.625e-5
-1.602	-1.678e-4	-5.960e-5
-1.607	-1.730e-4	-6.306e-5
-1.612	-1.780e-4	-6.662e-5
-1.617	-1.828e-4	-7.028e-5
-1.622	-1.873e-4	-7.403e-5
-1.627	-1.915e-4	-7.786e-5
-1.632	-1.952e-4	-8.176e-5
-1.637	-1.985e-4	-8.573e-5
-1.642	-2.014e-4	-8.976e-5
-1.647	-2.037e-4	-9.383e-5
-1.652	-2.055e-4	-9.794e-5
-1.657	-2.067e-4	-1.021e-4
-1.662	-2.074e-4	-1.062e-4
-1.667	-2.075e-4	-1.104e-4
-1.672	-2.071e-4	-1.145e-4
-1.677	-2.062e-4	-1.186e-4
-1.682	-2.048e-4	-1.227e-4
-1.687	-2.032e-4	-1.268e-4
-1.692	-2.013e-4	-1.308e-4
-1.697	-1.991e-4	-1.348e-4
-1.702	-1.969e-4	-1.387e-4
-1.707	-1.947e-4	-1.426e-4
-1.712	-1.925e-4	-1.465e-4
-1.717	-1.903e-4	-1.503e-4
-1.722	-1.882e-4	-1.541e-4
-1.727	-1.861e-4	-1.578e-4
-1.732	-1.841e-4	-1.615e-4
-1.737	-1.822e-4	-1.651e-4
-1.742	-1.803e-4	-1.687e-4
-1.747	-1.785e-4	-1.723e-4
-1.752	-1.767e-4	-1.758e-4
-1.757	-1.750e-4	-1.793e-4
-1.762	-1.734e-4	-1.828e-4
-1.767	-1.719e-4	-1.862e-4
-1.772	-1.704e-4	-1.896e-4
-1.777	-1.690e-4	-1.930e-4
-1.782	-1.677e-4	-1.964e-4
-1.787	-1.664e-4	-1.997e-4
-1.792	-1.652e-4	-2.030e-4
-1.797	-1.640e-4	-2.063e-4
-1.802	-1.630e-4	-2.095e-4
-1.807	-1.620e-4	-2.128e-4
-1.812	-1.611e-4	-2.160e-4
-1.817	-1.602e-4	-2.192e-4
-1.822	-1.593e-4	-2.224e-4
-1.827	-1.585e-4	-2.256e-4
-1.832	-1.578e-4	-2.287e-4
-1.837	-1.572e-4	-2.319e-4
-1.842	-1.566e-4	-2.350e-4
-1.847	-1.561e-4	-2.381e-4
-1.852	-1.557e-4	-2.412e-4
-1.857	-1.553e-4	-2.443e-4
-1.862	-1.549e-4	-2.474e-4
-1.867	-1.546e-4	-2.505e-4
-1.872	-1.544e-4	-2.536e-4
-1.877	-1.542e-4	-2.567e-4
-1.882	-1.541e-4	-2.598e-4
-1.887	-1.541e-4	-2.629e-4
-1.892	-1.541e-4	-2.659e-4
-1.897	-1.541e-4	-2.690e-4
-1.898	-1.488e-4	-2.976e-6
-1.893	-1.445e-4	-5.867e-6
-1.888	-1.407e-4	-8.681e-6
-1.883	-1.372e-4	-1.143e-5
-1.878	-1.343e-4	-1.411e-5
-1.873	-1.317e-4	-1.674e-5
-1.868	-1.292e-4	-1.933e-5
-1.863	-1.269e-4	-2.187e-5
-1.858	-1.247e-4	-2.436e-5
-1.853	-1.226e-4	-2.681e-5
-1.848	-1.205e-4	-2.922e-5
-1.843	-1.186e-4	-3.159e-5
-1.838	-1.167e-4	-3.393e-5
-1.833	-1.149e-4	-3.622e-5
-1.828	-1.131e-4	-3.849e-5
-1.823	-1.113e-4	-4.071e-5
-1.818	-1.097e-4	-4.291e-5
-1.813	-1.080e-4	-4.507e-5
-1.808	-1.064e-4	-4.720e-5
-1.803	-1.049e-4	-4.929e-5
-1.798	-1.033e-4	-5.136e-5
-1.793	-1.018e-4	-5.340e-5
-1.788	-1.003e-4	-5.540e-5
-1.783	-9.887e-5	-5.738e-5
-1.778	-9.746e-5	-5.933e-5
-1.773	-9.609e-5	-6.125e-5
-1.768	-9.479e-5	-6.315e-5
-1.763	-9.352e-5	-6.502e-5
-1.758	-9.227e-5	-6.686e-5
-1.753	-9.105e-5	-6.868e-5
-1.748	-8.983e-5	-7.048e-5
-1.743	-8.863e-5	-7.225e-5
-1.738	-8.746e-5	-7.400e-5
-1.733	-8.633e-5	-7.573e-5
-1.728	-8.521e-5	-7.743e-5
-1.723	-8.410e-5	-7.911e-5
-1.718	-8.296e-5	-8.077e-5
-1.713	-8.180e-5	-8.241e-5
-1.708	-8.064e-5	-8.402e-5
-1.703	-7.948e-5	-8.561e-5
-1.698	-7.831e-5	-8.718e-5
-1.693	-7.715e-5	-8.872e-5
-1.688	-7.595e-5	-9.024e-5
-1.683	-7.470e-5	-9.173e-5
-1.678	-7.340e-5	-9.320e-5
-1.673	-7.205e-5	-9.464e-5
-1.668	-7.065e-5	-9.606e-5
-1.663	-6.922e-5	-9.744e-5
-1.658	-6.775e-5	-9.879e-5
-1.653	-6.621e-5	-1.001e-4
-1.648	-6.464e-5	-1.014e-4
-1.643	-6.300e-5	-1.027e-4
-1.638	-6.131e-5	-1.039e-4
-1.633	-5.959e-5	-1.051e-4
-1.628	-5.782e-5	-1.062e-4
-1.623	-5.603e-5	-1.074e-4
-1.618	-5.420e-5	-1.085e-4
-1.613	-5.231e-5	-1.095e-4
-1.608	-5.040e-5	-1.105e-4
-1.603	-4.848e-5	-1.115e-4
-1.598	-4.656e-5	-1.124e-4
-1.593	-4.463e-5	-1.133e-4
-1.588	-4.270e-5	-1.142e-4
-1.583	-4.077e-5	-1.150e-4
-1.578	-3.883e-5	-1.157e-4
-1.573	-3.694e-5	-1.165e-4
-1.568	-3.506e-5	-1.172e-4
-1.563	-3.322e-5	-1.178e-4
-1.558	-3.142e-5	-1.185e-4
-1.553	-2.966e-5	-1.191e-4
-1.548	-2.793e-5	-1.196e-4
-1.543	-2.628e-5	-1.202e-4
-1.538	-2.469e-5	-1.206e-4
-1.533	-2.316e-5	-1.211e-4
-1.528	-2.169e-5	-1.215e-4
-1.523	-2.024e-5	-1.219e-4
-1.518	-1.884e-5	-1.223e-4
-1.513	-1.750e-5	-1.227e-4
-1.508	-1.624e-5	-1.230e-4
-1.503	-1.506e-5	-1.233e-4
-1.498	-1.395e-5	-1.236e-4
-1.493	-1.288e-5	-1.238e-4
-1.488	-1.185e-5	-1.241e-4
-1.483	-1.087e-5	-1.243e-4
-1.478	-9.922e-6	-1.245e-4
-1.473	-9.034e-6	-1.247e-4
-1.468	-8.210e-6	-1.248e-4
-1.463	-7.427e-6	-1.250e-4
-1.458	-6.693e-6	-1.251e-4
-1.453	-5.994e-6	-1.252e-4
-1.448	-5.316e-6	-1.253e-4
-1.443	-4.664e-6	-1.254e-4
-1.438	-4.033e-6	-1.255e-4
-1.433	-3.416e-6	-1.256e-4
-1.428	-2.820e-6	-1.256e-4
-1.423	-2.235e-6	-1.257e-4
-1.418	-1.651e-6	-1.257e-4
-1.413	-1.069e-6	-1.257e-4
-1.408	-4.781e-7	-1.258e-4
-1.403	1.336e-7	-1.258e-4
-1.398	7.670e-7	-1.257e-4
-1.393	1.434e-6	-1.257e-4
-1.388	2.143e-6	-1.257e-4
-1.383	2.888e-6	-1.256e-4
-1.378	3.682e-6	-1.255e-4
-1.373	4.550e-6	-1.254e-4
-1.368	5.503e-6	-1.253e-4
-1.363	6.562e-6	-1.252e-4
-1.358	7.742e-6	-1.250e-4
-1.353	9.026e-6	-1.249e-4
-1.348	1.042e-5	-1.247e-4
-1.343	1.196e-5	-1.244e-4
-1.338	1.363e-5	-1.241e-4
-1.333	1.545e-5	-1.238e-4
-1.328	1.747e-5	-1.235e-4
-1.323	1.967e-5	-1.231e-4
-1.318	2.208e-5	-1.227e-4
-1.313	2.473e-5	-1.222e-4
-1.308	2.755e-5	-1.216e-4
-1.303	3.055e-5	-1.210e-4
-1.298	3.374e-5	-1.203e-4
-1.293	3.710e-5	-1.196e-4
-1.288	4.067e-5	-1.188e-4
-1.283	4.446e-5	-1.179e-4
-1.278	4.841e-5	-1.169e-4
-1.273	5.252e-5	-1.159e-4
-1.268	5.677e-5	-1.147e-4
-1.263	6.110e-5	-1.135e-4
-1.258	6.553e-5	-1.122e-4
-1.253	7.004e-5	-1.108e-4
-1.248	7.455e-5	-1.093e-4
-1.243	7.903e-5	-1.077e-4
-1.238	8.350e-5	-1.060e-4
-1.233	8.785e-5	-1.043e-4
-1.228	9.208e-5	-1.024e-4
-1.223	9.616e-5	-1.005e-4
-1.218	9.999e-5	-9.852e-5
-1.213	1.035e-4	-9.645e-5
-1.208	1.068e-4	-9.432e-5
-1.203	1.097e-4	-9.212e-5
-1.198	1.123e-4	-8.988e-5
-1.193	1.144e-4	-8.759e-5
-1.188	1.161e-4	-8.527e-5
-1.183	1.175e-4	-8.292e-5
-1.178	1.185e-4	-8.055e-5
-1.173	1.190e-4	-7.817e-5
-1.168	1.192e-4	-7.578e-5
-1.163	1.191e-4	-7.340e-5
-1.158	1.186e-4	-7.103e-5
-1.153	1.179e-4	-6.867e-5
-1.148	1.169e-4	-6.633e-5
-1.143	1.156e-4	-6.402e-5
-1.138	1.143e-4	-6.173e-5
-1.133	1.127e-4	-5.948e-5
-1.128	1.111e-4	-5.726e-5
-1.123	1.094e-4	-5.507e-5
-1.118	1.076e-4	-5.292e-5
-1.113	1.058e-4	-5.080e-5
-1.108	1.039e-4	-4.872e-5
-1.103	1.021e-4	-4.668e-5
-1.098	1.002e-4	-4.468e-5
-1.093	9.834e-5	-4.271e-5
-1.088	9.653e-5	-4.078e-5
-1.083	9.473e-5	-3.889e-5
-1.078	9.297e-5	-3.703e-5
-1.073	9.124e-5	-3.520e-5
-1.068	8.954e-5	-3.341e-5
-1.063	8.789e-5	-3.165e-5
-1.058	8.630e-5	-2.993e-5
-1.053	8.474e-5	-2.823e-5
-1.048	8.323e-5	-2.657e-5
-1.043	8.176e-5	-2.493e-5
-1.038	8.033e-5	-2.333e-5
-1.033	7.895e-5	-2.175e-5
-1.028	7.761e-5	-2.020e-5
-1.023	7.632e-5	-1.867e-5
-1.018	7.507e-5	-1.717e-5
-1.013	7.386e-5	-1.569e-5
-1.008	7.270e-5	-1.424e-5
-1.003	7.156e-5	-1.281e-5
-0.998	7.047e-5	-1.140e-5
-0.993	6.939e-5	-1.001e-5
-0.988	6.835e-5	-8.642e-6
-0.983	6.735e-5	-7.295e-6
-0.978	6.638e-5	-5.967e-6
-0.973	6.545e-5	-4.658e-6
-0.968	6.456e-5	-3.367e-6
-0.963	6.370e-5	-2.093e-6
-0.958	6.285e-5	-8.356e-7
-0.953	6.204e-5	4.051e-7
-0.948	6.124e-5	1.630e-6
-0.943	6.045e-5	2.839e-6
-0.938	5.970e-5	4.033e-6
-0.933	5.896e-5	5.212e-6
-0.928	5.825e-5	6.377e-6
-0.923	5.755e-5	7.528e-6
-0.918	5.687e-5	8.665e-6
-0.913	5.620e-5	9.789e-6
-0.908	5.555e-5	1.090e-5
-0.903	5.491e-5	1.200e-5
-0.898	5.429e-5	1.308e-5
-0.893	5.368e-5	1.416e-5
-0.888	5.308e-5	1.522e-5
-0.883	5.248e-5	1.627e-5
-0.878	5.190e-5	1.731e-5
-0.873	5.132e-5	1.833e-5
-0.868	5.076e-5	1.935e-5
-0.863	5.020e-5	2.035e-5
-0.858	4.965e-5	2.135e-5
-0.853	4.912e-5	2.233e-5
-0.848	4.860e-5	2.330e-5
-0.843	4.808e-5	2.426e-5
-0.838	4.757e-5	2.521e-5
-0.833	4.706e-5	2.615e-5
-0.828	4.655e-5	2.709e-5
-0.823	4.606e-5	2.801e-5
-0.818	4.560e-5	2.892e-5
-0.813	4.514e-5	2.982e-5
-0.808	4.470e-5	3.072e-5
-0.803	4.426e-5	3.160e-5
-0.798	4.382e-5	3.248e-5
-0.793	4.338e-5	3.334e-5
-0.788	4.295e-5	3.420e-5
-0.783	4.253e-5	3.505e-5
-0.778	4.213e-5	3.590e-5
-0.773	4.174e-5	3.673e-5
-0.768	4.135e-5	3.756e-5
-0.763	4.096e-5	3.838e-5
-0.758	4.057e-5	3.919e-5
-0.753	4.018e-5	3.999e-5
-0.748	3.981e-5	4.079e-5
-0.743	3.945e-5	4.158e-5
-0.738	3.911e-5	4.236e-5
-0.733	3.877e-5	4.314e-5
-0.728	3.843e-5	4.390e-5
-0.723	3.809e-5	4.467e-5
-0.718	3.775e-5	4.542e-5
-0.713	3.742e-5	4.617e-5
-0.708	3.710e-5	4.691e-5
-0.703	3.680e-5	4.765e-5
-0.698	3.650e-5	4.838e-5
-0.693	3.621e-5	4.910e-5
-0.688	3.592e-5	4.982e-5
-0.683	3.564e-5	5.053e-5
-0.678	3.537e-5	5.124e-5
-0.673	3.511e-5	5.194e-5
-0.668	3.486e-5	5.264e-5
-0.663	3.461e-5	5.333e-5
-0.658	3.437e-5	5.402e-5
-0.653	3.413e-5	5.470e-5
-0.648	3.390e-5	5.538e-5
-0.643	3.367e-5	5.605e-5
-0.638	3.345e-5	5.672e-5
-0.633	3.323e-5	5.739e-5
-0.628	3.302e-5	5.805e-5
-0.623	3.282e-5	5.870e-5
-0.618	3.263e-5	5.936e-5
-0.613	3.244e-5	6.001e-5
-0.608	3.225e-5	6.065e-5
-0.603	3.208e-5	6.129e-5
-0.598	3.190e-5	6.193e-5
-0.593	3.173e-5	6.256e-5
-0.588	3.157e-5	6.320e-5
-0.583	3.141e-5	6.382e-5
-0.578	3.127e-5	6.445e-5
-0.573	3.113e-5	6.507e-5
-0.568	3.100e-5	6.569e-5
-0.563	3.086e-5	6.631e-5
-0.558	3.073e-5	6.692e-5
-0.553	3.060e-5	6.754e-5
-0.548	3.049e-5	6.815e-5
-0.543	3.037e-5	6.875e-5
-0.538	3.027e-5	6.936e-5
-0.533	3.016e-5	6.996e-5
-0.528	3.005e-5	7.056e-5
-0.523	2.994e-5	7.116e-5
-0.518	2.984e-5	7.176e-5
-0.513	2.975e-5	7.235e-5
-0.508	2.967e-5	7.295e-5
-0.503	2.960e-5	7.354e-5
-0.502	2.832e-5	5.663e-7
-0.507	2.785e-5	1.123e-6
-0.512	2.741e-5	1.672e-6
-0.517	2.701e-5	2.212e-6
-0.522	2.664e-5	2.745e-6
-0.527	2.630e-5	3.271e-6
-0.532	2.599e-5	3.790e-6
-0.537	2.569e-5	4.304e-6
-0.542	2.541e-5	4.812e-6
-0.547	2.514e-5	5.315e-6
-0.552	2.487e-5	5.813e-6
-0.557	2.462e-5	6.305e-6
-0.562	2.437e-5	6.792e-6
-0.567	2.414e-5	7.275e-6
-0.572	2.392e-5	7.753e-6
-0.577	2.370e-5	8.227e-6
-0.582	2.350e-5	8.697e-6
-0.587	2.330e-5	9.163e-6
-0.592	2.310e-5	9.625e-6
-0.597	2.291e-5	1.008e-5
-0.602	2.272e-5	1.054e-5
-0.607	2.255e-5	1.099e-5
-0.612	2.238e-5	1.144e-5
-0.617	2.223e-5	1.188e-5
-0.622	2.208e-5	1.232e-5
-0.627	2.192e-5	1.276e-5
-0.632	2.178e-5	1.320e-5
-0.637	2.163e-5	1.363e-5
-0.642	2.149e-5	1.406e-5
-0.647	2.136e-5	1.449e-5
-0.652	2.123e-5	1.491e-5
-0.657	2.109e-5	1.533e-5
-0.662	2.096e-5	1.575e-5
-0.667	2.082e-5	1.617e-5
-0.672	2.070e-5	1.658e-5
-0.677	2.058e-5	1.699e-5
-0.682	2.047e-5	1.740e-5
-0.687	2.036e-5	1.781e-5
-0.692	2.026e-5	1.822e-5
-0.697	2.014e-5	1.862e-5
-0.702	2.002e-5	1.902e-5
-0.707	1.990e-5	1.942e-5
-0.712	1.978e-5	1.981e-5
-0.717	1.966e-5	2.021e-5
-0.722	1.955e-5	2.060e-5
-0.727	1.944e-5	2.099e-5
-0.732	1.934e-5	2.137e-5
-0.737	1.924e-5	2.176e-5
-0.742	1.912e-5	2.214e-5
-0.747	1.900e-5	2.252e-5
-0.752	1.888e-5	2.290e-5
-0.757	1.875e-5	2.327e-5
-0.762	1.863e-5	2.364e-5
-0.767	1.852e-5	2.402e-5
-0.772	1.840e-5	2.438e-5
-0.777	1.828e-5	2.475e-5
-0.782	1.816e-5	2.511e-5
-0.787	1.803e-5	2.547e-5
-0.792	1.789e-5	2.583e-5
-0.797	1.775e-5	2.619e-5
-0.802	1.761e-5	2.654e-5
-0.807	1.747e-5	2.689e-5
-0.812	1.734e-5	2.723e-5
-0.817	1.721e-5	2.758e-5
-0.822	1.707e-5	2.792e-5
-0.827	1.693e-5	2.826e-5
-0.832	1.678e-5	2.859e-5
-0.837	1.662e-5	2.893e-5
-0.842	1.647e-5	2.926e-5
-0.847	1.631e-5	2.958e-5
-0.852	1.616e-5	2.990e-5
-0.857	1.600e-5	3.022e-5
-0.862	1.583e-5	3.054e-5
-0.867	1.565e-5	3.085e-5
-0.872	1.547e-5	3.116e-5
-0.877	1.529e-5	3.147e-5
-0.882	1.512e-5	3.177e-5
-0.887	1.494e-5	3.207e-5
-0.892	1.475e-5	3.237e-5
-0.897	1.455e-5	3.266e-5
-0.902	1.435e-5	3.294e-5
-0.907	1.414e-5	3.323e-5
-0.912	1.393e-5	3.350e-5
-0.917	1.372e-5	3.378e-5
-0.922	1.351e-5	3.405e-5
-0.927	1.330e-5	3.431e-5
-0.932	1.309e-5	3.458e-5
-0.937	1.286e-5	3.483e-5
-0.942	1.264e-5	3.509e-5
-0.947	1.242e-5	3.534e-5
-0.952	1.220e-5	3.558e-5
-0.957	1.198e-5	3.582e-5
-0.962	1.177e-5	3.605e-5
-0.967	1.155e-5	3.629e-5
-0.972	1.133e-5	3.651e-5
-0.977	1.112e-5	3.673e-5
-0.982	1.091e-5	3.695e-5
-0.987	1.070e-5	3.717e-5
-0.992	1.048e-5	3.738e-5
-0.997	1.027e-5	3.758e-5
-1.002	1.007e-5	3.778e-5
-1.007	9.868e-6	3.798e-5
-1.012	9.662e-6	3.817e-5
-1.017	9.454e-6	3.836e-5
-1.022	9.240e-6	3.855e-5
-1.027	9.018e-6	3.873e-5
-1.032	8.800e-6	3.890e-5
-1.037	8.588e-6	3.908e-5
-1.042	8.376e-6	3.924e-5
-1.047	8.168e-6	3.941e-5
-1.052	7.951e-6	3.957e-5
-1.057	7.722e-6	3.972e-5
-1.062	7.487e-6	3.987e-5
-1.067	7.249e-6	4.001e-5
-1.072	7.015e-6	4.015e-5
-1.077	6.790e-6	4.029e-5
-1.082	6.566e-6	4.042e-5
-1.087	6.340e-6	4.055e-5
-1.092	6.110e-6	4.067e-5
-1.097	5.869e-6	4.079e-5
-1.102	5.621e-6	4.090e-5
-1.107	5.369e-6	4.101e-5
-1.112	5.112e-6	4.111e-5
-1.117	4.853e-6	4.121e-5
-1.122	4.589e-6	4.130e-5
-1.127	4.312e-6	4.139e-5
-1.132	4.028e-6	4.147e-5
-1.137	3.741e-6	4.154e-5
-1.142	3.451e-6	4.161e-5
-1.147	3.167e-6	4.167e-5
-1.152	2.883e-6	4.173e-5
-1.157	2.591e-6	4.178e-5
-1.162	2.299e-6	4.183e-5
-1.167	2.000e-6	4.187e-5
-1.172	1.691e-6	4.190e-5
-1.177	1.378e-6	4.193e-5
-1.182	1.055e-6	4.195e-5
-1.187	7.234e-7	4.197e-5
-1.192	3.959e-7	4.197e-5
-1.197	6.493e-8	4.197e-5
-1.202	-2.720e-7	4.197e-5
-1.207	-6.123e-7	4.196e-5
-1.212	-9.627e-7	4.194e-5
-1.217	-1.320e-6	4.191e-5
-1.222	-1.674e-6	4.188e-5
-1.227	-2.030e-6	4.184e-5
-1.232	-2.380e-6	4.179e-5
-1.237	-2.727e-6	4.174e-5
-1.242	-3.083e-6	4.167e-5
-1.247	-3.452e-6	4.160e-5
-1.252	-3.817e-6	4.153e-5
-1.257	-4.198e-6	4.144e-5
-1.262	-4.571e-6	4.135e-5
-1.267	-4.939e-6	4.125e-5
-1.272	-5.307e-6	4.115e-5
-1.277	-5.669e-6	4.103e-5
-1.282	-6.001e-6	4.091e-5
-1.287	-6.339e-6	4.079e-5
-1.292	-6.676e-6	4.065e-5
-1.297	-7.021e-6	4.051e-5
-1.302	-7.375e-6	4.037e-5
-1.307	-7.730e-6	4.021e-5
-1.312	-8.070e-6	4.005e-5
-1.317	-8.409e-6	3.988e-5
-1.322	-8.751e-6	3.971e-5
-1.327	-9.097e-6	3.952e-5
-1.332	-9.453e-6	3.934e-5
-1.337	-9.821e-6	3.914e-5
-1.342	-1.019e-5	3.894e-5
-1.347	-1.058e-5	3.872e-5
-1.352	-1.097e-5	3.850e-5
-1.357	-1.138e-5	3.828e-5
-1.362	-1.182e-5	3.804e-5
-1.367	-1.228e-5	3.780e-5
-1.372	-1.278e-5	3.754e-5
-1.377	-1.331e-5	3.727e-5
-1.382	-1.386e-5	3.700e-5
-1.387	-1.444e-5	3.671e-5
-1.392	-1.506e-5	3.641e-5
-1.397	-1.571e-5	3.609e-5
-1.402	-1.642e-5	3.576e-5
-1.407	-1.720e-5	3.542e-5
-1.412	-1.805e-5	3.506e-5
-1.417	-1.897e-5	3.468e-5
-1.422	-1.996e-5	3.428e-5
-1.427	-2.102e-5	3.386e-5
-1.432	-2.216e-5	3.342e-5
-1.437	-2.339e-5	3.295e-5
-1.442	-2.472e-5	3.245e-5
-1.447	-2.618e-5	3.193e-5
-1.452	-2.776e-5	3.138e-5
-1.457	-2.947e-5	3.079e-5
-1.462	-3.133e-5	3.016e-5
-1.467	-3.336e-5	2.949e-5
-1.472	-3.556e-5	2.878e-5
-1.477	-3.796e-5	2.802e-5
-1.482	-4.055e-5	2.721e-5
-1.487	-4.333e-5	2.634e-5
-1.492	-4.632e-5	2.542e-5
-1.497	-4.954e-5	2.443e-5
-1.502	-5.300e-5	2.337e-5
-1.507	-5.671e-5	2.223e-5
-1.512	-6.070e-5	2.102e-5
-1.517	-6.493e-5	1.972e-5
-1.522	-6.943e-5	1.833e-5
-1.527	-7.421e-5	1.685e-5
-1.532	-7.923e-5	1.526e-5
-1.537	-8.451e-5	1.357e-5
-1.542	-9.006e-5	1.177e-5
-1.547	-9.581e-5	9.855e-6
-1.552	-1.018e-4	7.819e-6
-1.557	-1.079e-4	5.660e-6
-1.562	-1.142e-4	3.375e-6
-1.567	-1.207e-4	9.614e-7
-1.572	-1.273e-4	-1.585e-6
-1.577	-1.340e-4	-4.264e-6
-1.582	-1.406e-4	-7.076e-6
-1.587	-1.471e-4	-1.002e-5
-1.592	-1.532e-4	-1.308e-5
-1.597	-1.591e-4	-1.626e-5
-1.602	-1.646e-4	-1.956e-5
-1.607	-1.698e-4	-2.295e-5
-1.612	-1.748e-4	-2.645e-5
-1.617	-1.794e-4	-3.004e-5
-1.622	-1.838e-4	-3.371e-5
-1.627	-1.877e-4	-3.747e-5
-1.632	-1.913e-4	-4.129e-5
-1.637	-1.944e-4	-4.518e-5
-1.642	-1.969e-4	-4.912e-5
-1.647	-1.989e-4	-5.309e-5
-1.652	-2.004e-4	-5.710e-5
-1.657	-2.013e-4	-6.113e-5
-1.662	-2.016e-4	-6.516e-5
-1.667	-2.015e-4	-6.919e-5
-1.672	-2.008e-4	-7.321e-5
-1.677	-1.998e-4	-7.720e-5
-1.682	-1.984e-4	-8.117e-5
-1.687	-1.967e-4	-8.510e-5
-1.692	-1.949e-4	-8.900e-5
-1.697	-1.928e-4	-9.286e-5
-1.702	-1.907e-4	-9.667e-5
-1.707	-1.886e-4	-1.004e-4
-1.712	-1.866e-4	-1.042e-4
-1.717	-1.846e-4	-1.079e-4
-1.722	-1.826e-4	-1.115e-4
-1.727	-1.808e-4	-1.151e-4
-1.732	-1.790e-4	-1.187e-4
-1.737	-1.772e-4	-1.223e-4
-1.742	-1.756e-4	-1.258e-4
-1.747	-1.740e-4	-1.293e-4
-1.752	-1.724e-4	-1.327e-4
-1.757	-1.710e-4	-1.361e-4
-1.762	-1.696e-4	-1.395e-4
-1.767	-1.684e-4	-1.429e-4
-1.772	-1.671e-4	-1.462e-4
-1.777	-1.660e-4	-1.495e-4
-1.782	-1.649e-4	-1.528e-4
-1.787	-1.638e-4	-1.561e-4
-1.792	-1.629e-4	-1.594e-4
-1.797	-1.620e-4	-1.626e-4
-1.802	-1.612e-4	-1.658e-4
-1.807	-1.604e-4	-1.690e-4
-1.812	-1.597e-4	-1.722e-4
-1.817	-1.590e-4	-1.754e-4
-1.822	-1.584e-4	-1.786e-4
-1.827	-1.578e-4	-1.817e-4
-1.832	-1.573e-4	-1.849e-4
-1.837	-1.569e-4	-1.880e-4
-1.842	-1.565e-4	-1.912e-4
-1.847	-1.562e-4	-1.943e-4
-1.852	-1.559e-4	-1.974e-4
-1.857	-1.556e-4	-2.005e-4
-1.862	-1.554e-4	-2.036e-4
-1.867	-1.553e-4	-2.067e-4
-1.872	-1.552e-4	-2.098e-4
-1.877	-1.552e-4	-2.129e-4
-1.882	-1.552e-4	-2.160e-4
-1.887	-1.553e-4	-2.191e-4
-1.892	-1.555e-4	-2.223e-4
-1.897	-1.557e-4	-2.254e-4
-1.898	-1.494e-4	-2.988e-6
-1.893	-1.452e-4	-5.892e-6
-1.888	-1.413e-4	-8.717e-6
-1.883	-1.378e-4	-1.147e-5
-1.878	-1.347e-4	-1.417e-5
-1.873	-1.319e-4	-1.680e-5
-1.868	-1.293e-4	-1.939e-5
-1.863	-1.268e-4	-2.193e-5
-1.858	-1.245e-4	-2.442e-5
-1.853	-1.222e-4	-2.686e-5
-1.848	-1.200e-4	-2.926e-5
-1.843	-1.179e-4	-3.162e-5
-1.838	-1.159e-4	-3.394e-5
-1.833	-1.139e-4	-3.621e-5
-1.828	-1.121e-4	-3.846e-5
-1.823	-1.102e-4	-4.066e-5
-1.818	-1.085e-4	-4.283e-5
-1.813	-1.067e-4	-4.496e-5
-1.808	-1.050e-4	-4.707e-5
-1.803	-1.034e-4	-4.913e-5
-1.798	-1.018e-4	-5.117e-5
-1.793	-1.003e-4	-5.317e-5
-1.788	-9.875e-5	-5.515e-5
-1.783	-9.727e-5	-5.710e-5
-1.778	-9.583e-5	-5.901e-5
-1.773	-9.442e-5	-6.090e-5
-1.768	-9.303e-5	-6.276e-5
-1.763	-9.170e-5	-6.459e-5
-1.758	-9.038e-5	-6.640e-5
-1.753	-8.908e-5	-6.818e-5
-1.748	-8.777e-5	-6.994e-5
-1.743	-8.646e-5	-7.167e-5
-1.738	-8.515e-5	-7.337e-5
-1.733	-8.385e-5	-7.505e-5
-1.728	-8.255e-5	-7.670e-5
-1.723	-8.123e-5	-7.832e-5
-1.718	-7.989e-5	-7.992e-5
-1.713	-7.852e-5	-8.149e-5
-1.708	-7.712e-5	-8.303e-5
-1.703	-7.570e-5	-8.455e-5
-1.698	-7.425e-5	-8.603e-5
-1.693	-7.277e-5	-8.749e-5
-1.688	-7.126e-5	-8.891e-5
-1.683	-6.972e-5	-9.031e-5
-1.678	-6.813e-5	-9.167e-5
-1.673	-6.650e-5	-9.300e-5
-1.668	-6.481e-5	-9.430e-5
-1.663	-6.309e-5	-9.556e-5
-1.658	-6.135e-5	-9.679e-5
-1.653	-5.957e-5	-9.798e-5
-1.648	-5.778e-5	-9.913e-5
-1.643	-5.596e-5	-1.003e-4
-1.638	-5.410e-5	-1.013e-4
-1.633	-5.221e-5	-1.024e-4
-1.628	-5.030e-5	-1.034e-4
-1.623	-4.835e-5	-1.044e-4
-1.618	-4.639e-5	-1.053e-4
-1.613	-4.444e-5	-1.062e-4
-1.608	-4.248e-5	-1.070e-4
-1.603	-4.054e-5	-1.078e-4
-1.598	-3.862e-5	-1.086e-4
-1.593	-3.670e-5	-1.093e-4
-1.588	-3.480e-5	-1.100e-4
-1.583	-3.293e-5	-1.107e-4
-1.578	-3.107e-5	-1.113e-4
-1.573	-2.925e-5	-1.119e-4
-1.568	-2.748e-5	-1.124e-4
-1.563	-2.574e-5	-1.130e-4
-1.558	-2.406e-5	-1.134e-4
-1.553	-2.242e-5	-1.139e-4
-1.548	-2.083e-5	-1.143e-4
-1.543	-1.930e-5	-1.147e-4
-1.538	-1.784e-5	-1.150e-4
-1.533	-1.643e-5	-1.154e-4
-1.528	-1.510e-5	-1.157e-4
-1.523	-1.382e-5	-1.160e-4
-1.518	-1.257e-5	-1.162e-4
-1.513	-1.138e-5	-1.164e-4
-1.508	-1.025e-5	-1.166e-4
-1.503	-9.168e-6	-1.168e-4
-1.498	-8.152e-6	-1.170e-4
-1.493	-7.193e-6	-1.171e-4
-1.488	-6.282e-6	-1.173e-4
-1.483	-5.425e-6	-1.174e-4
-1.478	-4.613e-6	-1.175e-4
-1.473	-3.834e-6	-1.175e-4
-1.468	-3.097e-6	-1.176e-4
-1.463	-2.397e-6	-1.176e-4
-1.458	-1.729e-6	-1.177e-4
-1.453	-1.100e-6	-1.177e-4
-1.448	-5.096e-7	-1.177e-4
-1.443	5.809e-8	-1.177e-4
-1.438	6.057e-7	-1.177e-4
-1.433	1.139e-6	-1.177e-4
-1.428	1.668e-6	-1.176e-4
-1.423	2.185e-6	-1.176e-4
-1.418	2.692e-6	-1.175e-4
-1.413	3.200e-6	-1.175e-4
-1.408	3.718e-6	-1.174e-4
-1.403	4.243e-6	-1.173e-4
-1.398	4.788e-6	-1.172e-4
-1.393	5.356e-6	-1.171e-4
-1.388	5.952e-6	-1.170e-4
-1.383	6.581e-6	-1.169e-4
-1.378	7.251e-6	-1.167e-4
-1.373	7.965e-6	-1.166e-4
-1.368	8.743e-6	-1.164e-4
-1.363	9.605e-6	-1.162e-4
-1.358	1.056e-5	-1.160e-4
-1.353	1.164e-5	-1.158e-4
-1.348	1.283e-5	-1.155e-4
-1.343	1.414e-5	-1.152e-4
-1.338	1.559e-5	-1.149e-4
-1.333	1.719e-5	-1.146e-4
-1.328	1.893e-5	-1.142e-4
-1.323	2.083e-5	-1.138e-4
-1.318	2.291e-5	-1.133e-4
-1.313	2.520e-5	-1.128e-4
-1.308	2.771e-5	-1.122e-4
-1.303	3.045e-5	-1.116e-4
-1.298	3.339e-5	-1.110e-4
-1.293	3.652e-5	-1.102e-4
-1.288	3.985e-5	-1.094e-4
-1.283	4.338e-5	-1.086e-4
-1.278	4.710e-5	-1.076e-4
-1.273	5.102e-5	-1.066e-4
-1.268	5.509e-5	-1.055e-4
-1.263	5.931e-5	-1.043e-4
-1.258	6.365e-5	-1.030e-4
-1.253	6.805e-5	-1.017e-4
-1.248	7.250e-5	-1.002e-4
-1.243	7.699e-5	-9.870e-5
-1.238	8.142e-5	-9.707e-5
-1.233	8.581e-5	-9.535e-5
-1.228	9.009e-5	-9.355e-5
-1.223	9.416e-5	-9.167e-5
-1.218	9.804e-5	-8.971e-5
-1.213	1.017e-4	-8.767e-5
-1.208	1.051e-4	-8.557e-5
-1.203	1.081e-4	-8.341e-5
-1.198	1.109e-4	-8.119e-5
-1.193	1.133e-4	-7.893e-5
-1.188	1.152e-4	-7.662e-5
-1.183	1.168e-4	-7.429e-5
-1.178	1.179e-4	-7.193e-5
-1.173	1.187e-4	-6.956e-5
-1.168	1.191e-4	-6.717e-5
-1.163	1.191e-4	-6.479e-5
-1.158	1.188e-4	-6.242e-5
-1.153	1.183e-4	-6.005e-5
-1.148	1.175e-4	-5.770e-5
-1.143	1.164e-4	-5.537e-5
-1.138	1.152e-4	-5.307e-5
-1.133	1.138e-4	-5.079e-5
-1.128	1.123e-4	-4.855e-5
-1.123	1.107e-4	-4.634e-5
-1.118	1.090e-4	-4.416e-5
-1.113	1.072e-4	-4.201e-5
-1.108	1.055e-4	-3.990e-5
-1.103	1.036e-4	-3.783e-5
-1.098	1.018e-4	-3.579e-5
-1.093	1.000e-4	-3.379e-5
-1.088	9.827e-5	-3.183e-5
-1.083	9.652e-5	-2.990e-5
-1.078	9.481e-5	-2.800e-5
-1.073	9.313e-5	-2.614e-5
-1.068	9.149e-5	-2.431e-5
-1.063	8.990e-5	-2.251e-5
-1.058	8.833e-5	-2.074e-5
-1.053	8.681e-5	-1.901e-5
-1.048	8.533e-5	-1.730e-5
-1.043	8.390e-5	-1.562e-5
-1.038	8.251e-5	-1.397e-5
-1.033	8.116e-5	-1.235e-5
-1.028	7.985e-5	-1.075e-5
-1.023	7.858e-5	-9.180e-6
-1.018	7.734e-5	-7.633e-6
-1.013	7.614e-5	-6.110e-6
-1.008	7.499e-5	-4.610e-6
-1.003	7.388e-5	-3.133e-6
-0.998	7.280e-5	-1.677e-6
-0.993	7.174e-5	-2.421e-7
-0.988	7.072e-5	1.172e-6
-0.983	6.972e-5	2.567e-6
-0.978	6.876e-5	3.942e-6
-0.973	6.784e-5	5.299e-6
-0.968	6.695e-5	6.638e-6
-0.963	6.608e-5	7.959e-6
-0.958	6.524e-5	9.264e-6
-0.953	6.442e-5	1.055e-5
-0.948	6.363e-5	1.183e-5
-0.943	6.286e-5	1.308e-5
-0.938	6.212e-5	1.433e-5
-0.933	6.141e-5	1.555e-5
-0.928	6.072e-5	1.677e-5
-0.923	6.006e-5	1.797e-5
-0.918	5.941e-5	1.916e-5
-0.913	5.879e-5	2.033e-5
-0.908	5.820e-5	2.150e-5
-0.903	5.762e-5	2.265e-5
-0.898	5.707e-5	2.379e-5
-0.893	5.652e-5	2.492e-5
-0.888	5.599e-5	2.604e-5
-0.883	5.546e-5	2.715e-5
-0.878	5.496e-5	2.825e-5
-0.873	5.448e-5	2.934e-5
-0.868	5.401e-5	3.042e-5
-0.863	5.355e-5	3.149e-5
-0.858	5.311e-5	3.255e-5
-0.853	5.268e-5	3.361e-5
-0.848	5.226e-5	3.465e-5
-0.843	5.186e-5	3.569e-5
-0.838	5.146e-5	3.672e-5
-0.833	5.108e-5	3.774e-5
-0.828	5.071e-5	3.875e-5
-0.823	5.036e-5	3.976e-5
-0.818	5.002e-5	4.076e-5
-0.813	4.970e-5	4.176e-5
-0.808	4.937e-5	4.274e-5
-0.803	4.905e-5	4.372e-5
-0.798	4.874e-5	4.470e-5
-0.793	4.844e-5	4.567e-5
-0.788	4.814e-5	4.663e-5
-0.783	4.786e-5	4.759e-5
-0.778	4.759e-5	4.854e-5
-0.773	4.732e-5	4.949e-5
-0.768	4.706e-5	5.043e-5
-0.763	4.679e-5	5.136e-5
-0.758	4.653e-5	5.229e-5
-0.753	4.627e-5	5.322e-5
-0.748	4.602e-5	5.414e-5
-0.743	4.578e-5	5.505e-5
-0.738	4.555e-5	5.597e-5
-0.733	4.533e-5	5.687e-5
-0.728	4.510e-5	5.777e-5
-0.723	4.487e-5	5.867e-5
-0.718	4.465e-5	5.956e-5
-0.713	4.442e-5	6.045e-5
-0.708	4.419e-5	6.134e-5
-0.703	4.397e-5	6.222e-5
-0.698	4.375e-5	6.309e-5
-0.693	4.353e-5	6.396e-5
-0.688	4.331e-5	6.483e-5
-0.683	4.310e-5	6.569e-5
-0.678	4.288e-5	6.655e-5
-0.673	4.266e-5	6.740e-5
-0.668	4.245e-5	6.825e-5
-0.663	4.224e-5	6.909e-5
-0.658	4.202e-5	6.994e-5
-0.653	4.180e-5	7.077e-5
-0.648	4.158e-5	7.160e-5
-0.643	4.135e-5	7.243e-5
-0.638	4.113e-5	7.325e-5
-0.633	4.090e-5	7.407e-5
-0.628	4.068e-5	7.488e-5
-0.623	4.046e-5	7.569e-5
-0.618	4.023e-5	7.650e-5
-0.613	4.001e-5	7.730e-5
-0.608	3.978e-5	7.809e-5
-0.603	3.955e-5	7.888e-5
-0.598	3.931e-5	7.967e-5
-0.593	3.908e-5	8.045e-5
-0.588	3.884e-5	8.123e-5
-0.583	3.860e-5	8.200e-5
-0.578	3.836e-5	8.277e-5
-0.573	3.812e-5	8.353e-5
-0.568	3.788e-5	8.429e-5
-0.563	3.763e-5	8.504e-5
-0.558	3.738e-5	8.579e-5
-0.553	3.713e-5	8.653e-5
-0.548	3.689e-5	8.727e-5
-0.543	3.666e-5	8.800e-5
-0.538	3.642e-5	8.873e-5
-0.533	3.619e-5	8.945e-5
-0.528	3.595e-5	9.017e-5
-0.523	3.571e-5	9.089e-5
-0.518	3.547e-5	9.160e-5
-0.513	3.524e-5	9.230e-5
-0.508	3.501e-5	9.300e-5
-0.503	3.479e-5	9.370e-5
-0.502	3.344e-5	6.688e-7
-0.507	3.283e-5	1.325e-6
-0.512	3.225e-5	1.970e-6
-0.517	3.170e-5	2.604e-6
-0.522	3.119e-5	3.228e-6
-0.527	3.071e-5	3.842e-6
-0.532	3.025e-5	4.447e-6
-0.537	2.981e-5	5.043e-6
-0.542	2.938e-5	5.631e-6
-0.547	2.897e-5	6.210e-6
-0.552	2.858e-5	6.782e-6
-0.557	2.821e-5	7.346e-6
-0.562	2.784e-5	7.903e-6
-0.567	2.746e-5	8.452e-6
-0.572	2.708e-5	8.994e-6
-0.577	2.671e-5	9.528e-6
-0.582	2.636e-5	1.006e-5
-0.587	2.602e-5	1.058e-5
-0.592	2.570e-5	1.109e-5
-0.597	2.538e-5	1.160e-5
-0.602	2.506e-5	1.210e-5
-0.607	2.474e-5	1.259e-5
-0.612	2.444e-5	1.308e-5
-0.617	2.414e-5	1.356e-5
-0.622	2.384e-5	1.404e-5
-0.627	2.354e-5	1.451e-5
-0.632	2.325e-5	1.498e-5
-0.637	2.296e-5	1.544e-5
-0.642	2.268e-5	1.589e-5
-0.647	2.241e-5	1.634e-5
-0.652	2.214e-5	1.678e-5
-0.657	2.187e-5	1.722e-5
-0.662	2.161e-5	1.765e-5
-0.667	2.135e-5	1.808e-5
-0.672	2.108e-5	1.850e-5
-0.677	2.083e-5	1.892e-5
-0.682	2.058e-5	1.933e-5
-0.687	2.034e-5	1.973e-5
-0.692	2.010e-5	2.014e-5
-0.697	1.987e-5	2.053e-5
-0.702	1.965e-5	2.093e-5
-0.707	1.943e-5	2.132e-5
-0.712	1.921e-5	2.170e-5
-0.717	1.900e-5	2.208e-5
-0.722	1.880e-5	2.246e-5
-0.727	1.859e-5	2.283e-5
-0.732	1.839e-5	2.320e-5
-0.737	1.820e-5	2.356e-5
-0.742	1.800e-5	2.392e-5
-0.747	1.781e-5	2.428e-5
-0.752	1.763e-5	2.463e-5
-0.757	1.746e-5	2.498e-5
-0.762	1.728e-5	2.532e-5
-0.767	1.711e-5	2.566e-5
-0.772	1.695e-5	2.600e-5
-0.777	1.679e-5	2.634e-5
-0.782	1.663e-5	2.667e-5
-0.787	1.648e-5	2.700e-5
-0.792	1.632e-5	2.733e-5
-0.797	1.617e-5	2.765e-5
-0.802	1.603e-5	2.797e-5
-0.807	1.589e-5	2.829e-5
-0.812	1.576e-5	2.861e-5
-0.817	1.562e-5	2.892e-5
-0.822	1.549e-5	2.923e-5
-0.827	1.537e-5	2.954e-5
-0.832	1.524e-5	2.984e-5
-0.837	1.511e-5	3.014e-5
-0.842	1.500e-5	3.044e-5
-0.847	1.490e-5	3.074e-5
-0.852	1.480e-5	3.104e-5
-0.857	1.471e-5	3.133e-5
-0.862	1.461e-5	3.162e-5
-0.867	1.452e-5	3.191e-5
-0.872	1.443e-5	3.220e-5
-0.877	1.434e-5	3.249e-5
-0.882	1.427e-5	3.277e-5
-0.887	1.419e-5	3.306e-5
-0.892	1.411e-5	3.334e-5
-0.897	1.404e-5	3.362e-5
-0.902	1.397e-5	3.390e-5
-0.907	1.390e-5	3.418e-5
-0.912	1.383e-5	3.445e-5
-0.917	1.377e-5	3.473e-5
-0.922	1.372e-5	3.500e-5
-0.927	1.366e-5	3.528e-5
-0.932	1.361e-5	3.555e-5
-0.937	1.356e-5	3.582e-5
-0.942	1.350e-5	3.609e-5
-0.947	1.345e-5	3.636e-5
-0.952	1.340e-5	3.663e-5
-0.957	1.335e-5	3.689e-5
-0.962	1.330e-5	3.716e-5
-0.967	1.324e-5	3.743e-5
-0.972	1.319e-5	3.769e-5
-0.977	1.313e-5	3.795e-5
-0.982	1.306e-5	3.821e-5
-0.987	1.298e-5	3.847e-5
-0.992	1.291e-5	3.873e-5
-0.997	1.284e-5	3.899e-5
-1.002	1.278e-5	3.924e-5
-1.007	1.271e-5	3.950e-5
-1.012	1.264e-5	3.975e-5
-1.017	1.257e-5	4.000e-5
-1.022	1.249e-5	4.025e-5
-1.027	1.240e-5	4.050e-5
-1.032	1.232e-5	4.075e-5
-1.037	1.224e-5	4.099e-5
-1.042	1.216e-5	4.123e-5
-1.047	1.208e-5	4.148e-5
-1.052	1.199e-5	4.171e-5
-1.057	1.190e-5	4.195e-5
-1.062	1.180e-5	4.219e-5
-1.067	1.172e-5	4.242e-5
-1.072	1.162e-5	4.266e-5
-1.077	1.154e-5	4.289e-5
-1.082	1.144e-5	4.312e-5
-1.087	1.133e-5	4.334e-5
-1.092	1.120e-5	4.357e-5
-1.097	1.106e-5	4.379e-5
-1.102	1.092e-5	4.401e-5
-1.107	1.076e-5	4.422e-5
-1.112	1.061e-5	4.443e-5
-1.117	1.043e-5	4.464e-5
-1.122	1.025e-5	4.485e-5
-1.127	1.005e-5	4.505e-5
-1.132	9.831e-6	4.524e-5
-1.137	9.599e-6	4.544e-5
-1.142	9.353e-6	4.562e-5
-1.147	9.092e-6	4.581e-5
-1.152	8.819e-6	4.598e-5
-1.157	8.534e-6	4.615e-5
-1.162	8.228e-6	4.632e-5
-1.167	7.905e-6	4.647e-5
-1.172	7.559e-6	4.663e-5
-1.177	7.198e-6	4.677e-5
-1.182	6.827e-6	4.691e-5
-1.187	6.441e-6	4.704e-5
-1.192	6.044e-6	4.716e-5
-1.197	5.636e-6	4.727e-5
-1.202	5.207e-6	4.737e-5
-1.207	4.762e-6	4.747e-5
-1.212	4.304e-6	4.755e-5
-1.217	3.826e-6	4.763e-5
-1.222	3.338e-6	4.770e-5
-1.227	2.850e-6	4.775e-5
-1.232	2.355e-6	4.780e-5
-1.237	1.857e-6	4.784e-5
-1.242	1.357e-6	4.787e-5
-1.247	8.438e-7	4.788e-5
-1.252	3.227e-7	4.789e-5
-1.257	-1.957e-7	4.789e-5
-1.262	-7.186e-7	4.787e-5
-1.267	-1.236e-6	4.785e-5
-1.272	-1.744e-6	4.781e-5
-1.277	-2.249e-6	4.777e-5
-1.282	-2.750e-6	4.771e-5
-1.287	-3.241e-6	4.765e-5
-1.292	-3.740e-6	4.757e-5
-1.297	-4.240e-6	4.749e-5
-1.302	-4.735e-6	4.739e-5
-1.307	-5.231e-6	4.729e-5
-1.312	-5.724e-6	4.717e-5
-1.317	-6.212e-6	4.705e-5
-1.322	-6.705e-6	4.692e-5
-1.327	-7.207e-6	4.677e-5
-1.332	-7.715e-6	4.662e-5
-1.337	-8.242e-6	4.645e-5
-1.342	-8.783e-6	4.628e-5
-1.347	-9.342e-6	4.609e-5
-1.352	-9.914e-6	4.589e-5
-1.357	-1.050e-5	4.568e-5
-1.362	-1.111e-5	4.546e-5
-1.367	-1.174e-5	4.522e-5
-1.372	-1.241e-5	4.498e-5
-1.377	-1.312e-5	4.471e-5
-1.382	-1.386e-5	4.444e-5
-1.387	-1.465e-5	4.414e-5
-1.392	-1.547e-5	4.383e-5
-1.397	-1.635e-5	4.351e-5
-1.402	-1.729e-5	4.316e-5
-1.407	-1.830e-5	4.280e-5
-1.412	-1.937e-5	4.241e-5
-1.417	-2.052e-5	4.200e-5
-1.422	-2.174e-5	4.156e-5
-1.427	-2.305e-5	4.110e-5
-1.432	-2.447e-5	4.061e-5
-1.437	-2.599e-5	4.009e-5
-1.442	-2.763e-5	3.954e-5
-1.447	-2.940e-5	3.895e-5
-1.452	-3.130e-5	3.833e-5
-1.457	-3.333e-5	3.766e-5
-1.462	-3.553e-5	3.695e-5
-1.467	-3.788e-5	3.619e-5
-1.472	-4.041e-5	3.538e-5
-1.477	-4.313e-5	3.452e-5
-1.482	-4.602e-5	3.360e-5
-1.487	-4.911e-5	3.262e-5
-1.492	-5.243e-5	3.157e-5
-1.497	-5.595e-5	3.045e-5
-1.502	-5.970e-5	2.926e-5
-1.507	-6.371e-5	2.798e-5
-1.512	-6.794e-5	2.662e-5
-1.517	-7.239e-5	2.518e-5
-1.522	-7.709e-5	2.363e-5
-1.527	-8.199e-5	2.199e-5
-1.532	-8.711e-5	2.025e-5
-1.537	-9.251e-5	1.840e-5
-1.542	-9.810e-5	1.644e-5
-1.547	-1.039e-4	1.436e-5
-1.552	-1.099e-4	1.216e-5
-1.557	-1.161e-4	9.842e-6
-1.562	-1.223e-4	7.396e-6
-1.567	-1.287e-4	4.822e-6
-1.572	-1.351e-4	2.120e-6
-1.577	-1.416e-4	-7.111e-7
-1.582	-1.480e-4	-3.671e-6
-1.587	-1.542e-4	-6.754e-6
-1.592	-1.600e-4	-9.954e-6
-1.597	-1.654e-4	-1.326e-5
-1.602	-1.704e-4	-1.667e-5
-1.607	-1.751e-4	-2.017e-5
-1.612	-1.795e-4	-2.376e-5
-1.617	-1.837e-4	-2.743e-5
-1.622	-1.875e-4	-3.119e-5
-1.627	-1.910e-4	-3.501e-5
-1.632	-1.942e-4	-3.889e-5
-1.637	-1.969e-4	-4.283e-5
-1.642	-1.992e-4	-4.681e-5
-1.647	-2.011e-4	-5.083e-5
-1.652	-2.025e-4	-5.488e-5
-1.657	-2.033e-4	-5.895e-5
-1.662	-2.037e-4	-6.302e-5
-1.667	-2.036e-4	-6.710e-5
-1.672	-2.030e-4	-7.116e-5
-1.677	-2.021e-4	-7.520e-5
-1.682	-2.007e-4	-7.921e-5
-1.687	-1.990e-4	-8.319e-5
-1.692	-1.970e-4	-8.713e-5
-1.697	-1.948e-4	-9.103e-5
-1.702	-1.925e-4	-9.488e-5
-1.707	-1.902e-4	-9.868e-5
-1.712	-1.879e-4	-1.024e-4
-1.717	-1.856e-4	-1.062e-4
-1.722	-1.834e-4	-1.098e-4
-1.727	-1.812e-4	-1.134e-4
-1.732	-1.790e-4	-1.170e-4
-1.737	-1.769e-4	-1.206e-4
-1.742	-1.748e-4	-1.241e-4
-1.747	-1.729e-4	-1.275e-4
-1.752	-1.709e-4	-1.309e-4
-1.757	-1.691e-4	-1.343e-4
-1.762	-1.673e-4	-1.377e-4
-1.767	-1.656e-4	-1.410e-4
-1.772	-1.640e-4	-1.443e-4
-1.777	-1.624e-4	-1.475e-4
-1.782	-1.609e-4	-1.507e-4
-1.787	-1.594e-4	-1.539e-4
-1.792	-1.581e-4	-1.571e-4
-1.797	-1.568e-4	-1.602e-4
-1.802	-1.556e-4	-1.633e-4
-1.807	-1.545e-4	-1.664e-4
-1.812	-1.535e-4	-1.695e-4
-1.817	-1.525e-4	-1.725e-4
-1.822	-1.516e-4	-1.756e-4
-1.827	-1.508e-4	-1.786e-4
-1.832	-1.500e-4	-1.816e-4
-1.837	-1.493e-4	-1.846e-4
-1.842	-1.487e-4	-1.875e-4
-1.847	-1.481e-4	-1.905e-4
-1.852	-1.477e-4	-1.934e-4
-1.857	-1.472e-4	-1.964e-4
-1.862	-1.469e-4	-1.993e-4
-1.867	-1.466e-4	-2.023e-4
-1.872	-1.463e-4	-2.052e-4
-1.877	-1.461e-4	-2.081e-4
-1.882	-1.460e-4	-2.110e-4
-1.887	-1.460e-4	-2.140e-4
-1.892	-1.460e-4	-2.169e-4
-1.897	-1.461e-4	-2.198e-4
-1.898	-1.407e-4	-2.814e-6
-1.893	-1.362e-4	-5.538e-6
-1.888	-1.322e-4	-8.182e-6
-1.883	-1.285e-4	-1.075e-5
-1.878	-1.253e-4	-1.326e-5
-1.873	-1.225e-4	-1.571e-5
-1.868	-1.198e-4	-1.811e-5
-1.863	-1.174e-4	-2.045e-5
-1.858	-1.150e-4	-2.275e-5
-1.853	-1.129e-4	-2.501e-5
-1.848	-1.108e-4	-2.723e-5
-1.843	-1.089e-4	-2.940e-5
-1.838	-1.070e-4	-3.154e-5
-1.833	-1.052e-4	-3.365e-5
-1.828	-1.035e-4	-3.572e-5
-1.823	-1.018e-4	-3.775e-5
-1.818	-1.002e-4	-3.976e-5
-1.813	-9.866e-5	-4.173e-5
-1.808	-9.714e-5	-4.367e-5
-1.803	-9.568e-5	-4.559e-5
-1.798	-9.424e-5	-4.747e-5
-1.793	-9.282e-5	-4.933e-5
-1.788	-9.141e-5	-5.116e-5
-1.783	-9.001e-5	-5.296e-5
-1.778	-8.863e-5	-5.473e-5
-1.773	-8.726e-5	-5.648e-5
-1.768	-8.593e-5	-5.819e-5
-1.763	-8.460e-5	-5.989e-5
-1.758	-8.330e-5	-6.155e-5
-1.753	-8.200e-5	-6.319e-5
-1.748	-8.071e-5	-6.481e-5
-1.743	-7.944e-5	-6.640e-5
-1.738	-7.818e-5	-6.796e-5
-1.733	-7.693e-5	-6.950e-5
-1.728	-7.569e-5	-7.101e-5
-1.723	-7.447e-5	-7.250e-5
-1.718	-7.325e-5	-7.397e-5
-1.713	-7.205e-5	-7.541e-5
-1.708	-7.087e-5	-7.682e-5
-1.703	-6.969e-5	-7.822e-5
-1.698	-6.852e-5	-7.959e-5
-1.693	-6.736e-5	-8.094e-5
-1.688	-6.621e-5	-8.226e-5
-1.683	-6.507e-5	-8.356e-5
-1.678	-6.393e-5	-8.484e-5
-1.673	-6.277e-5	-8.610e-5
-1.668	-6.160e-5	-8.733e-5
-1.663	-6.039e-5	-8.853e-5
-1.658	-5.914e-5	-8.972e-5
-1.653	-5.786e-5	-9.088e-5
-1.648	-5.655e-5	-9.201e-5
-1.643	-5.519e-5	-9.311e-5
-1.638	-5.379e-5	-9.419e-5
-1.633	-5.237e-5	-9.523e-5
-1.628	-5.090e-5	-9.625e-5
-1.623	-4.939e-5	-9.724e-5
-1.618	-4.786e-5	-9.820e-5
-1.613	-4.627e-5	-9.912e-5
-1.608	-4.466e-5	-1.000e-4
-1.603	-4.303e-5	-1.009e-4
-1.598	-4.137e-5	-1.017e-4
-1.593	-3.971e-5	-1.025e-4
-1.588	-3.805e-5	-1.033e-4
-1.583	-3.638e-5	-1.040e-4
-1.578	-3.471e-5	-1.047e-4
-1.573	-3.306e-5	-1.053e-4
-1.568	-3.142e-5	-1.060e-4
-1.563	-2.980e-5	-1.066e-4
-1.558	-2.822e-5	-1.071e-4
-1.553	-2.665e-5	-1.077e-4
-1.548	-2.511e-5	-1.082e-4
-1.543	-2.362e-5	-1.086e-4
-1.538	-2.218e-5	-1.091e-4
-1.533	-2.079e-5	-1.095e-4
-1.528	-1.945e-5	-1.099e-4
-1.523	-1.815e-5	-1.102e-4
-1.518	-1.691e-5	-1.106e-4
-1.513	-1.573e-5	-1.109e-4
-1.508	-1.461e-5	-1.112e-4
-1.503	-1.354e-5	-1.115e-4
-1.498	-1.254e-5	-1.117e-4
-1.493	-1.159e-5	-1.119e-4
-1.488	-1.070e-5	-1.122e-4
-1.483	-9.853e-6	-1.124e-4
-1.478	-9.035e-6	-1.125e-4
-1.473	-8.263e-6	-1.127e-4
-1.468	-7.544e-6	-1.129e-4
-1.463	-6.863e-6	-1.130e-4
-1.458	-6.231e-6	-1.131e-4
-1.453	-5.644e-6	-1.132e-4
-1.448	-5.076e-6	-1.133e-4
-1.443	-4.536e-6	-1.134e-4
-1.438	-4.021e-6	-1.135e-4
-1.433	-3.510e-6	-1.136e-4
-1.428	-3.017e-6	-1.136e-4
-1.423	-2.544e-6	-1.137e-4
-1.418	-2.073e-6	-1.137e-4
-1.413	-1.608e-6	-1.138e-4
-1.408	-1.143e-6	-1.138e-4
-1.403	-6.575e-7	-1.138e-4
-1.398	-1.531e-7	-1.138e-4
-1.393	3.727e-7	-1.138e-4
-1.388	9.392e-7	-1.138e-4
-1.383	1.550e-6	-1.137e-4
-1.378	2.208e-6	-1.137e-4
-1.373	2.936e-6	-1.136e-4
-1.368	3.741e-6	-1.136e-4
-1.363	4.629e-6	-1.135e-4
-1.358	5.621e-6	-1.134e-4
-1.353	6.726e-6	-1.132e-4
-1.348	7.946e-6	-1.131e-4
-1.343	9.309e-6	-1.129e-4
-1.338	1.083e-5	-1.127e-4
-1.333	1.252e-5	-1.124e-4
-1.328	1.438e-5	-1.121e-4
-1.323	1.644e-5	-1.118e-4
-1.318	1.869e-5	-1.114e-4
-1.313	2.117e-5	-1.110e-4
-1.308	2.388e-5	-1.105e-4
-1.303	2.680e-5	-1.100e-4
-1.298	2.996e-5	-1.094e-4
-1.293	3.335e-5	-1.087e-4
-1.288	3.693e-5	-1.080e-4
-1.283	4.075e-5	-1.072e-4
-1.278	4.481e-5	-1.063e-4
-1.273	4.907e-5	-1.053e-4
-1.268	5.352e-5	-1.042e-4
-1.263	5.811e-5	-1.031e-4
-1.258	6.278e-5	-1.018e-4
-1.253	6.752e-5	-1.004e-4
-1.248	7.230e-5	-9.900e-5
-1.243	7.708e-5	-9.746e-5
-1.238	8.184e-5	-9.582e-5
-1.233	8.652e-5	-9.409e-5
-1.228	9.109e-5	-9.227e-5
-1.223	9.554e-5	-9.036e-5
-1.218	9.983e-5	-8.836e-5
-1.213	1.039e-4	-8.629e-5
-1.208	1.077e-4	-8.413e-5
-1.203	1.111e-4	-8.191e-5
-1.198	1.142e-4	-7.963e-5
-1.193	1.168e-4	-7.729e-5
-1.188	1.191e-4	-7.491e-5
-1.183	1.209e-4	-7.249e-5
-1.178	1.222e-4	-7.005e-5
-1.173	1.232e-4	-6.758e-5
-1.168	1.237e-4	-6.511e-5
-1.163	1.239e-4	-6.263e-5
-1.158	1.236e-4	-6.016e-5
-1.153	1.231e-4	-5.770e-5
-1.148	1.223e-4	-5.525e-5
-1.143	1.212e-4	-5.283e-5
-1.138	1.199e-4	-5.043e-5
-1.133	1.184e-4	-4.806e-5
-1.128	1.168e-4	-4.573e-5
-1.123	1.151e-4	-4.342e-5
-1.118	1.134e-4	-4.115e-5
-1.113	1.115e-4	-3.892e-5
-1.108	1.097e-4	-3.673e-5
-1.103	1.078e-4	-3.457e-5
-1.098	1.060e-4	-3.245e-5
-1.093	1.042e-4	-3.037e-5
-1.088	1.024e-4	-2.832e-5
-1.083	1.006e-4	-2.631e-5
-1.078	9.889e-5	-2.433e-5
-1.073	9.718e-5	-2.239e-5
-1.068	9.552e-5	-2.048e-5
-1.063	9.390e-5	-1.860e-5
-1.058	9.232e-5	-1.675e-5
-1.053	9.080e-5	-1.494e-5
-1.048	8.933e-5	-1.315e-5
-1.043	8.791e-5	-1.139e-5
-1.038	8.654e-5	-9.662e-6
-1.033	8.521e-5	-7.958e-6
-1.028	8.390e-5	-6.280e-6
-1.023	8.263e-5	-4.627e-6
-1.018	8.140e-5	-2.999e-6
-1.013	8.021e-5	-1.395e-6
-1.008	7.906e-5	1.867e-7
-1.003	7.796e-5	1.746e-6
-0.998	7.687e-5	3.283e-6
-0.993	7.582e-5	4.800e-6
-0.988	7.479e-5	6.295e-6
-0.983	7.379e-5	7.771e-6
-0.978	7.282e-5	9.228e-6
-0.973	7.188e-5	1.067e-5
-0.968	7.097e-5	1.208e-5
-0.963	7.008e-5	1.349e-5
-0.958	6.922e-5	1.487e-5
-0.953	6.838e-5	1.624e-5
-0.948	6.756e-5	1.759e-5
-0.943	6.676e-5	1.892e-5
-0.938	6.599e-5	2.024e-5
-0.933	6.523e-5	2.155e-5
-0.928	6.451e-5	2.284e-5
-0.923	6.381e-5	2.412e-5
-0.918	6.312e-5	2.538e-5
-0.913	6.246e-5	2.663e-5
-0.908	6.180e-5	2.786e-5
-0.903	6.116e-5	2.909e-5
-0.898	6.054e-5	3.030e-5
-0.893	5.994e-5	3.150e-5
-0.888	5.937e-5	3.268e-5
-0.883	5.882e-5	3.386e-5
-0.878	5.828e-5	3.503e-5
-0.873	5.775e-5	3.618e-5
-0.868	5.723e-5	3.733e-5
-0.863	5.672e-5	3.846e-5
-0.858	5.623e-5	3.958e-5
-0.853	5.575e-5	4.070e-5
-0.848	5.530e-5	4.181e-5
-0.843	5.486e-5	4.290e-5
-0.838	5.443e-5	4.399e-5
-0.833	5.402e-5	4.507e-5
-0.828	5.361e-5	4.614e-5
-0.823	5.320e-5	4.721e-5
-0.818	5.281e-5	4.826e-5
-0.813	5.242e-5	4.931e-5
-0.808	5.205e-5	5.035e-5
-0.803	5.168e-5	5.139e-5
-0.798	5.131e-5	5.241e-5
-0.793	5.095e-5	5.343e-5
-0.788	5.060e-5	5.444e-5
-0.783	5.026e-5	5.545e-5
-0.778	4.992e-5	5.645e-5
-0.773	4.960e-5	5.744e-5
-0.768	4.927e-5	5.842e-5
-0.763	4.895e-5	5.940e-5
-0.758	4.863e-5	6.038e-5
-0.753	4.832e-5	6.134e-5
-0.748	4.801e-5	6.230e-5
-0.743	4.771e-5	6.326e-5
-0.738	4.742e-5	6.421e-5
-0.733	4.713e-5	6.515e-5
-0.728	4.685e-5	6.608e-5
-0.723	4.657e-5	6.702e-5
-0.718	4.630e-5	6.794e-5
-0.713	4.603e-5	6.886e-5
-0.708	4.576e-5	6.978e-5
-0.703	4.550e-5	7.069e-5
-0.698	4.523e-5	7.159e-5
-0.693	4.497e-5	7.249e-5
-0.688	4.472e-5	7.339e-5
-0.683	4.446e-5	7.428e-5
-0.678	4.421e-5	7.516e-5
-0.673	4.397e-5	7.604e-5
-0.668	4.372e-5	7.691e-5
-0.663	4.349e-5	7.778e-5
-0.658	4.325e-5	7.865e-5
-0.653	4.302e-5	7.951e-5
-0.648	4.280e-5	8.036e-5
-0.643	4.258e-5	8.122e-5
-0.638	4.235e-5	8.206e-5
-0.633	4.213e-5	8.291e-5
-0.628	4.191e-5	8.374e-5
-0.623	4.170e-5	8.458e-5
-0.618	4.149e-5	8.541e-5
-0.613	4.129e-5	8.623e-5
-0.608	4.108e-5	8.706e-5
-0.603	4.088e-5	8.787e-5
-0.598	4.067e-5	8.869e-5
-0.593	4.045e-5	8.950e-5
-0.588	4.025e-5	9.030e-5
-0.583	4.005e-5	9.110e-5
-0.578	3.985e-5	9.190e-5
-0.573	3.967e-5	9.269e-5
-0.568	3.949e-5	9.348e-5
-0.563	3.929e-5	9.427e-5
-0.558	3.910e-5	9.505e-5
-0.553	3.890e-5	9.583e-5
-0.548	3.871e-5	9.660e-5
-0.543	3.853e-5	9.737e-5
-0.538	3.836e-5	9.814e-5
-0.533	3.818e-5	9.890e-5
-0.528	3.800e-5	9.966e-5
-0.523	3.782e-5	1.004e-4
-0.518	3.764e-5	1.012e-4
-0.513	3.747e-5	1.019e-4
-0.508	3.730e-5	1.027e-4
-0.503	3.713e-5	1.034e-4
