Nov. 4, 2019   15:00:20
Cyclic Voltammetry
File: e:\data_thesis\4-11-2019\cv_2,3-dsqui_1m_kcl_10mm_hcl_scan_rates_001.txt
Data Source:  Experiment
Instrument Model:  CHI760E
Data Proc:  Smoothing
Header: 
Note: 

Init E (V) = 0
High E (V) = 0
Low E (V) = -0.6
Init P/N = N
Scan Rate (V/s) = 0.01
Segment = 6
Sample Interval (V) = 0.001
Quiet Time (sec) = 2
Sensitivity (A/V) = 1e-5

Segment 1:
Ep = -0.373V
Eh = -0.317V
ip = -3.086e-5A

Segment 2:
Ep = -0.300V
Eh = -0.364V
ip = 2.746e-5A

Segment 3:
Ep = -0.373V
Eh = -0.317V
ip = -3.120e-5A

Segment 4:
Ep = -0.301V
Eh = -0.364V
ip = 2.761e-5A

Segment 5:
Ep = -0.373V
Eh = -0.317V
ip = -3.125e-5A

Segment 6:
Ep = -0.301V
Eh = -0.364V
ip = 2.749e-5A

Potential/V	Current/A

0.000	1.827e-5	1.827e-6
-0.001	1.768e-5	3.594e-6
-0.002	1.712e-5	5.307e-6
-0.003	1.659e-5	6.966e-6
-0.004	1.610e-5	8.576e-6
-0.005	1.563e-5	1.014e-5
-0.006	1.519e-5	1.166e-5
-0.007	1.476e-5	1.313e-5
-0.008	1.436e-5	1.457e-5
-0.009	1.398e-5	1.597e-5
-0.010	1.361e-5	1.733e-5
-0.011	1.326e-5	1.865e-5
-0.012	1.292e-5	1.995e-5
-0.013	1.259e-5	2.120e-5
-0.014	1.228e-5	2.243e-5
-0.015	1.198e-5	2.363e-5
-0.016	1.169e-5	2.480e-5
-0.017	1.141e-5	2.594e-5
-0.018	1.114e-5	2.705e-5
-0.019	1.088e-5	2.814e-5
-0.020	1.063e-5	2.921e-5
-0.021	1.039e-5	3.025e-5
-0.022	1.015e-5	3.126e-5
-0.023	9.927e-6	3.225e-5
-0.024	9.706e-6	3.322e-5
-0.025	9.493e-6	3.417e-5
-0.026	9.286e-6	3.510e-5
-0.027	9.085e-6	3.601e-5
-0.028	8.889e-6	3.690e-5
-0.029	8.700e-6	3.777e-5
-0.030	8.515e-6	3.862e-5
-0.031	8.336e-6	3.945e-5
-0.032	8.163e-6	4.027e-5
-0.033	7.993e-6	4.107e-5
-0.034	7.828e-6	4.185e-5
-0.035	7.667e-6	4.262e-5
-0.036	7.511e-6	4.337e-5
-0.037	7.358e-6	4.411e-5
-0.038	7.209e-6	4.483e-5
-0.039	7.063e-6	4.553e-5
-0.040	6.922e-6	4.623e-5
-0.041	6.784e-6	4.690e-5
-0.042	6.649e-6	4.757e-5
-0.043	6.517e-6	4.822e-5
-0.044	6.389e-6	4.886e-5
-0.045	6.263e-6	4.949e-5
-0.046	6.140e-6	5.010e-5
-0.047	6.019e-6	5.070e-5
-0.048	5.902e-6	5.129e-5
-0.049	5.787e-6	5.187e-5
-0.050	5.674e-6	5.244e-5
-0.051	5.564e-6	5.299e-5
-0.052	5.456e-6	5.354e-5
-0.053	5.350e-6	5.407e-5
-0.054	5.247e-6	5.460e-5
-0.055	5.146e-6	5.511e-5
-0.056	5.048e-6	5.562e-5
-0.057	4.951e-6	5.611e-5
-0.058	4.856e-6	5.660e-5
-0.059	4.762e-6	5.708e-5
-0.060	4.670e-6	5.754e-5
-0.061	4.580e-6	5.800e-5
-0.062	4.492e-6	5.845e-5
-0.063	4.405e-6	5.889e-5
-0.064	4.320e-6	5.932e-5
-0.065	4.237e-6	5.975e-5
-0.066	4.155e-6	6.016e-5
-0.067	4.075e-6	6.057e-5
-0.068	3.995e-6	6.097e-5
-0.069	3.917e-6	6.136e-5
-0.070	3.840e-6	6.174e-5
-0.071	3.765e-6	6.212e-5
-0.072	3.691e-6	6.249e-5
-0.073	3.618e-6	6.285e-5
-0.074	3.546e-6	6.321e-5
-0.075	3.476e-6	6.355e-5
-0.076	3.406e-6	6.389e-5
-0.077	3.338e-6	6.423e-5
-0.078	3.270e-6	6.456e-5
-0.079	3.203e-6	6.488e-5
-0.080	3.137e-6	6.519e-5
-0.081	3.072e-6	6.550e-5
-0.082	3.008e-6	6.580e-5
-0.083	2.945e-6	6.609e-5
-0.084	2.883e-6	6.638e-5
-0.085	2.821e-6	6.666e-5
-0.086	2.761e-6	6.694e-5
-0.087	2.701e-6	6.721e-5
-0.088	2.642e-6	6.747e-5
-0.089	2.583e-6	6.773e-5
-0.090	2.526e-6	6.798e-5
-0.091	2.469e-6	6.823e-5
-0.092	2.413e-6	6.847e-5
-0.093	2.358e-6	6.871e-5
-0.094	2.303e-6	6.894e-5
-0.095	2.250e-6	6.916e-5
-0.096	2.197e-6	6.938e-5
-0.097	2.145e-6	6.960e-5
-0.098	2.094e-6	6.981e-5
-0.099	2.044e-6	7.001e-5
-0.100	1.995e-6	7.021e-5
-0.101	1.947e-6	7.041e-5
-0.102	1.900e-6	7.060e-5
-0.103	1.854e-6	7.078e-5
-0.104	1.809e-6	7.096e-5
-0.105	1.764e-6	7.114e-5
-0.106	1.721e-6	7.131e-5
-0.107	1.678e-6	7.148e-5
-0.108	1.637e-6	7.164e-5
-0.109	1.596e-6	7.180e-5
-0.110	1.556e-6	7.196e-5
-0.111	1.517e-6	7.211e-5
-0.112	1.480e-6	7.226e-5
-0.113	1.443e-6	7.240e-5
-0.114	1.407e-6	7.254e-5
-0.115	1.373e-6	7.268e-5
-0.116	1.339e-6	7.281e-5
-0.117	1.306e-6	7.294e-5
-0.118	1.274e-6	7.307e-5
-0.119	1.243e-6	7.320e-5
-0.120	1.212e-6	7.332e-5
-0.121	1.183e-6	7.343e-5
-0.122	1.154e-6	7.355e-5
-0.123	1.126e-6	7.366e-5
-0.124	1.098e-6	7.377e-5
-0.125	1.071e-6	7.388e-5
-0.126	1.045e-6	7.398e-5
-0.127	1.019e-6	7.409e-5
-0.128	9.945e-7	7.419e-5
-0.129	9.701e-7	7.428e-5
-0.130	9.463e-7	7.438e-5
-0.131	9.229e-7	7.447e-5
-0.132	8.999e-7	7.456e-5
-0.133	8.773e-7	7.465e-5
-0.134	8.551e-7	7.473e-5
-0.135	8.333e-7	7.482e-5
-0.136	8.118e-7	7.490e-5
-0.137	7.907e-7	7.498e-5
-0.138	7.699e-7	7.505e-5
-0.139	7.493e-7	7.513e-5
-0.140	7.290e-7	7.520e-5
-0.141	7.091e-7	7.527e-5
-0.142	6.895e-7	7.534e-5
-0.143	6.701e-7	7.541e-5
-0.144	6.510e-7	7.547e-5
-0.145	6.321e-7	7.554e-5
-0.146	6.134e-7	7.560e-5
-0.147	5.949e-7	7.566e-5
-0.148	5.767e-7	7.571e-5
-0.149	5.586e-7	7.577e-5
-0.150	5.407e-7	7.582e-5
-0.151	5.229e-7	7.588e-5
-0.152	5.052e-7	7.593e-5
-0.153	4.876e-7	7.598e-5
-0.154	4.702e-7	7.602e-5
-0.155	4.528e-7	7.607e-5
-0.156	4.356e-7	7.611e-5
-0.157	4.185e-7	7.615e-5
-0.158	4.014e-7	7.619e-5
-0.159	3.846e-7	7.623e-5
-0.160	3.679e-7	7.627e-5
-0.161	3.512e-7	7.630e-5
-0.162	3.345e-7	7.634e-5
-0.163	3.177e-7	7.637e-5
-0.164	3.009e-7	7.640e-5
-0.165	2.841e-7	7.643e-5
-0.166	2.672e-7	7.645e-5
-0.167	2.504e-7	7.648e-5
-0.168	2.335e-7	7.650e-5
-0.169	2.166e-7	7.652e-5
-0.170	1.998e-7	7.654e-5
-0.171	1.829e-7	7.656e-5
-0.172	1.660e-7	7.658e-5
-0.173	1.490e-7	7.659e-5
-0.174	1.318e-7	7.661e-5
-0.175	1.144e-7	7.662e-5
-0.176	9.697e-8	7.663e-5
-0.177	7.936e-8	7.664e-5
-0.178	6.163e-8	7.664e-5
-0.179	4.375e-8	7.665e-5
-0.180	2.569e-8	7.665e-5
-0.181	7.419e-9	7.665e-5
-0.182	-1.112e-8	7.665e-5
-0.183	-2.994e-8	7.665e-5
-0.184	-4.903e-8	7.664e-5
-0.185	-6.838e-8	7.663e-5
-0.186	-8.793e-8	7.663e-5
-0.187	-1.077e-7	7.662e-5
-0.188	-1.278e-7	7.660e-5
-0.189	-1.482e-7	7.659e-5
-0.190	-1.689e-7	7.657e-5
-0.191	-1.898e-7	7.655e-5
-0.192	-2.111e-7	7.653e-5
-0.193	-2.328e-7	7.651e-5
-0.194	-2.550e-7	7.648e-5
-0.195	-2.776e-7	7.645e-5
-0.196	-3.008e-7	7.642e-5
-0.197	-3.245e-7	7.639e-5
-0.198	-3.487e-7	7.636e-5
-0.199	-3.734e-7	7.632e-5
-0.200	-3.987e-7	7.628e-5
-0.201	-4.246e-7	7.624e-5
-0.202	-4.511e-7	7.619e-5
-0.203	-4.781e-7	7.614e-5
-0.204	-5.058e-7	7.609e-5
-0.205	-5.341e-7	7.604e-5
-0.206	-5.631e-7	7.598e-5
-0.207	-5.928e-7	7.592e-5
-0.208	-6.232e-7	7.586e-5
-0.209	-6.545e-7	7.580e-5
-0.210	-6.867e-7	7.573e-5
-0.211	-7.199e-7	7.566e-5
-0.212	-7.540e-7	7.558e-5
-0.213	-7.890e-7	7.550e-5
-0.214	-8.250e-7	7.542e-5
-0.215	-8.617e-7	7.533e-5
-0.216	-8.994e-7	7.524e-5
-0.217	-9.380e-7	7.515e-5
-0.218	-9.775e-7	7.505e-5
-0.219	-1.018e-6	7.495e-5
-0.220	-1.060e-6	7.484e-5
-0.221	-1.103e-6	7.473e-5
-0.222	-1.147e-6	7.462e-5
-0.223	-1.192e-6	7.450e-5
-0.224	-1.238e-6	7.438e-5
-0.225	-1.286e-6	7.425e-5
-0.226	-1.335e-6	7.411e-5
-0.227	-1.385e-6	7.398e-5
-0.228	-1.437e-6	7.383e-5
-0.229	-1.491e-6	7.368e-5
-0.230	-1.546e-6	7.353e-5
-0.231	-1.603e-6	7.337e-5
-0.232	-1.661e-6	7.320e-5
-0.233	-1.720e-6	7.303e-5
-0.234	-1.781e-6	7.285e-5
-0.235	-1.844e-6	7.267e-5
-0.236	-1.909e-6	7.248e-5
-0.237	-1.975e-6	7.228e-5
-0.238	-2.044e-6	7.207e-5
-0.239	-2.114e-6	7.186e-5
-0.240	-2.186e-6	7.164e-5
-0.241	-2.260e-6	7.142e-5
-0.242	-2.336e-6	7.118e-5
-0.243	-2.415e-6	7.094e-5
-0.244	-2.496e-6	7.069e-5
-0.245	-2.579e-6	7.044e-5
-0.246	-2.664e-6	7.017e-5
-0.247	-2.752e-6	6.989e-5
-0.248	-2.842e-6	6.961e-5
-0.249	-2.935e-6	6.932e-5
-0.250	-3.031e-6	6.901e-5
-0.251	-3.130e-6	6.870e-5
-0.252	-3.232e-6	6.838e-5
-0.253	-3.337e-6	6.804e-5
-0.254	-3.444e-6	6.770e-5
-0.255	-3.555e-6	6.734e-5
-0.256	-3.670e-6	6.698e-5
-0.257	-3.787e-6	6.660e-5
-0.258	-3.909e-6	6.621e-5
-0.259	-4.034e-6	6.580e-5
-0.260	-4.163e-6	6.539e-5
-0.261	-4.295e-6	6.496e-5
-0.262	-4.432e-6	6.451e-5
-0.263	-4.573e-6	6.406e-5
-0.264	-4.718e-6	6.359e-5
-0.265	-4.868e-6	6.310e-5
-0.266	-5.022e-6	6.260e-5
-0.267	-5.182e-6	6.208e-5
-0.268	-5.346e-6	6.154e-5
-0.269	-5.515e-6	6.099e-5
-0.270	-5.690e-6	6.042e-5
-0.271	-5.869e-6	5.984e-5
-0.272	-6.054e-6	5.923e-5
-0.273	-6.244e-6	5.861e-5
-0.274	-6.441e-6	5.796e-5
-0.275	-6.644e-6	5.730e-5
-0.276	-6.854e-6	5.661e-5
-0.277	-7.069e-6	5.591e-5
-0.278	-7.291e-6	5.518e-5
-0.279	-7.519e-6	5.442e-5
-0.280	-7.753e-6	5.365e-5
-0.281	-7.995e-6	5.285e-5
-0.282	-8.244e-6	5.203e-5
-0.283	-8.499e-6	5.118e-5
-0.284	-8.762e-6	5.030e-5
-0.285	-9.031e-6	4.940e-5
-0.286	-9.308e-6	4.847e-5
-0.287	-9.592e-6	4.751e-5
-0.288	-9.885e-6	4.652e-5
-0.289	-1.019e-5	4.550e-5
-0.290	-1.049e-5	4.445e-5
-0.291	-1.081e-5	4.337e-5
-0.292	-1.113e-5	4.226e-5
-0.293	-1.146e-5	4.111e-5
-0.294	-1.179e-5	3.993e-5
-0.295	-1.214e-5	3.872e-5
-0.296	-1.249e-5	3.747e-5
-0.297	-1.285e-5	3.618e-5
-0.298	-1.321e-5	3.486e-5
-0.299	-1.358e-5	3.350e-5
-0.300	-1.396e-5	3.211e-5
-0.301	-1.435e-5	3.067e-5
-0.302	-1.474e-5	2.920e-5
-0.303	-1.513e-5	2.769e-5
-0.304	-1.554e-5	2.613e-5
-0.305	-1.595e-5	2.454e-5
-0.306	-1.636e-5	2.290e-5
-0.307	-1.679e-5	2.122e-5
-0.308	-1.721e-5	1.950e-5
-0.309	-1.764e-5	1.774e-5
-0.310	-1.808e-5	1.593e-5
-0.311	-1.852e-5	1.408e-5
-0.312	-1.896e-5	1.218e-5
-0.313	-1.941e-5	1.024e-5
-0.314	-1.986e-5	8.256e-6
-0.315	-2.031e-5	6.225e-6
-0.316	-2.077e-5	4.148e-6
-0.317	-2.123e-5	2.025e-6
-0.318	-2.169e-5	-1.440e-7
-0.319	-2.216e-5	-2.360e-6
-0.320	-2.263e-5	-4.623e-6
-0.321	-2.310e-5	-6.933e-6
-0.322	-2.357e-5	-9.290e-6
-0.323	-2.404e-5	-1.169e-5
-0.324	-2.451e-5	-1.414e-5
-0.325	-2.499e-5	-1.664e-5
-0.326	-2.547e-5	-1.919e-5
-0.327	-2.594e-5	-2.178e-5
-0.328	-2.642e-5	-2.443e-5
-0.329	-2.689e-5	-2.711e-5
-0.330	-2.736e-5	-2.985e-5
-0.331	-2.783e-5	-3.263e-5
-0.332	-2.830e-5	-3.546e-5
-0.333	-2.876e-5	-3.834e-5
-0.334	-2.922e-5	-4.126e-5
-0.335	-2.968e-5	-4.423e-5
-0.336	-3.013e-5	-4.724e-5
-0.337	-3.058e-5	-5.030e-5
-0.338	-3.102e-5	-5.340e-5
-0.339	-3.146e-5	-5.655e-5
-0.340	-3.189e-5	-5.974e-5
-0.341	-3.231e-5	-6.297e-5
-0.342	-3.273e-5	-6.624e-5
-0.343	-3.314e-5	-6.956e-5
-0.344	-3.353e-5	-7.291e-5
-0.345	-3.392e-5	-7.630e-5
-0.346	-3.430e-5	-7.973e-5
-0.347	-3.467e-5	-8.320e-5
-0.348	-3.503e-5	-8.670e-5
-0.349	-3.538e-5	-9.024e-5
-0.350	-3.571e-5	-9.381e-5
-0.351	-3.604e-5	-9.741e-5
-0.352	-3.635e-5	-1.010e-4
-0.353	-3.665e-5	-1.047e-4
-0.354	-3.693e-5	-1.084e-4
-0.355	-3.720e-5	-1.121e-4
-0.356	-3.746e-5	-1.159e-4
-0.357	-3.770e-5	-1.196e-4
-0.358	-3.793e-5	-1.234e-4
-0.359	-3.814e-5	-1.272e-4
-0.360	-3.834e-5	-1.311e-4
-0.361	-3.852e-5	-1.349e-4
-0.362	-3.869e-5	-1.388e-4
-0.363	-3.884e-5	-1.427e-4
-0.364	-3.897e-5	-1.466e-4
-0.365	-3.909e-5	-1.505e-4
-0.366	-3.920e-5	-1.544e-4
-0.367	-3.929e-5	-1.583e-4
-0.368	-3.937e-5	-1.623e-4
-0.369	-3.943e-5	-1.662e-4
-0.370	-3.948e-5	-1.702e-4
-0.371	-3.952e-5	-1.741e-4
-0.372	-3.954e-5	-1.781e-4
-0.373	-3.954e-5	-1.820e-4
-0.374	-3.954e-5	-1.860e-4
-0.375	-3.952e-5	-1.899e-4
-0.376	-3.949e-5	-1.939e-4
-0.377	-3.945e-5	-1.978e-4
-0.378	-3.940e-5	-2.018e-4
-0.379	-3.934e-5	-2.057e-4
-0.380	-3.926e-5	-2.096e-4
-0.381	-3.918e-5	-2.135e-4
-0.382	-3.909e-5	-2.175e-4
-0.383	-3.899e-5	-2.214e-4
-0.384	-3.888e-5	-2.252e-4
-0.385	-3.877e-5	-2.291e-4
-0.386	-3.864e-5	-2.330e-4
-0.387	-3.852e-5	-2.368e-4
-0.388	-3.838e-5	-2.407e-4
-0.389	-3.824e-5	-2.445e-4
-0.390	-3.810e-5	-2.483e-4
-0.391	-3.794e-5	-2.521e-4
-0.392	-3.779e-5	-2.559e-4
-0.393	-3.763e-5	-2.596e-4
-0.394	-3.746e-5	-2.634e-4
-0.395	-3.730e-5	-2.671e-4
-0.396	-3.713e-5	-2.708e-4
-0.397	-3.696e-5	-2.745e-4
-0.398	-3.679e-5	-2.782e-4
-0.399	-3.662e-5	-2.819e-4
-0.400	-3.644e-5	-2.855e-4
-0.401	-3.627e-5	-2.891e-4
-0.402	-3.609e-5	-2.928e-4
-0.403	-3.591e-5	-2.963e-4
-0.404	-3.574e-5	-2.999e-4
-0.405	-3.556e-5	-3.035e-4
-0.406	-3.538e-5	-3.070e-4
-0.407	-3.521e-5	-3.105e-4
-0.408	-3.503e-5	-3.140e-4
-0.409	-3.485e-5	-3.175e-4
-0.410	-3.467e-5	-3.210e-4
-0.411	-3.450e-5	-3.244e-4
-0.412	-3.432e-5	-3.279e-4
-0.413	-3.415e-5	-3.313e-4
-0.414	-3.398e-5	-3.347e-4
-0.415	-3.381e-5	-3.381e-4
-0.416	-3.364e-5	-3.414e-4
-0.417	-3.347e-5	-3.448e-4
-0.418	-3.331e-5	-3.481e-4
-0.419	-3.314e-5	-3.514e-4
-0.420	-3.298e-5	-3.547e-4
-0.421	-3.282e-5	-3.580e-4
-0.422	-3.266e-5	-3.613e-4
-0.423	-3.250e-5	-3.645e-4
-0.424	-3.235e-5	-3.678e-4
-0.425	-3.219e-5	-3.710e-4
-0.426	-3.204e-5	-3.742e-4
-0.427	-3.189e-5	-3.774e-4
-0.428	-3.174e-5	-3.805e-4
-0.429	-3.159e-5	-3.837e-4
-0.430	-3.145e-5	-3.868e-4
-0.431	-3.131e-5	-3.900e-4
-0.432	-3.117e-5	-3.931e-4
-0.433	-3.103e-5	-3.962e-4
-0.434	-3.089e-5	-3.993e-4
-0.435	-3.076e-5	-4.024e-4
-0.436	-3.062e-5	-4.054e-4
-0.437	-3.049e-5	-4.085e-4
-0.438	-3.036e-5	-4.115e-4
-0.439	-3.024e-5	-4.145e-4
-0.440	-3.011e-5	-4.175e-4
-0.441	-2.999e-5	-4.205e-4
-0.442	-2.986e-5	-4.235e-4
-0.443	-2.975e-5	-4.265e-4
-0.444	-2.963e-5	-4.295e-4
-0.445	-2.951e-5	-4.324e-4
-0.446	-2.940e-5	-4.354e-4
-0.447	-2.929e-5	-4.383e-4
-0.448	-2.918e-5	-4.412e-4
-0.449	-2.907e-5	-4.441e-4
-0.450	-2.896e-5	-4.470e-4
-0.451	-2.885e-5	-4.499e-4
-0.452	-2.875e-5	-4.528e-4
-0.453	-2.865e-5	-4.556e-4
-0.454	-2.855e-5	-4.585e-4
-0.455	-2.845e-5	-4.613e-4
-0.456	-2.835e-5	-4.642e-4
-0.457	-2.825e-5	-4.670e-4
-0.458	-2.816e-5	-4.698e-4
-0.459	-2.807e-5	-4.726e-4
-0.460	-2.798e-5	-4.754e-4
-0.461	-2.789e-5	-4.782e-4
-0.462	-2.780e-5	-4.810e-4
-0.463	-2.771e-5	-4.837e-4
-0.464	-2.763e-5	-4.865e-4
-0.465	-2.754e-5	-4.893e-4
-0.466	-2.746e-5	-4.920e-4
-0.467	-2.738e-5	-4.947e-4
-0.468	-2.730e-5	-4.975e-4
-0.469	-2.722e-5	-5.002e-4
-0.470	-2.715e-5	-5.029e-4
-0.471	-2.707e-5	-5.056e-4
-0.472	-2.700e-5	-5.083e-4
-0.473	-2.692e-5	-5.110e-4
-0.474	-2.685e-5	-5.137e-4
-0.475	-2.678e-5	-5.164e-4
-0.476	-2.671e-5	-5.190e-4
-0.477	-2.664e-5	-5.217e-4
-0.478	-2.658e-5	-5.244e-4
-0.479	-2.651e-5	-5.270e-4
-0.480	-2.645e-5	-5.297e-4
-0.481	-2.638e-5	-5.323e-4
-0.482	-2.632e-5	-5.349e-4
-0.483	-2.626e-5	-5.376e-4
-0.484	-2.620e-5	-5.402e-4
-0.485	-2.614e-5	-5.428e-4
-0.486	-2.608e-5	-5.454e-4
-0.487	-2.603e-5	-5.480e-4
-0.488	-2.597e-5	-5.506e-4
-0.489	-2.591e-5	-5.532e-4
-0.490	-2.586e-5	-5.558e-4
-0.491	-2.581e-5	-5.584e-4
-0.492	-2.575e-5	-5.609e-4
-0.493	-2.570e-5	-5.635e-4
-0.494	-2.565e-5	-5.661e-4
-0.495	-2.560e-5	-5.686e-4
-0.496	-2.555e-5	-5.712e-4
-0.497	-2.551e-5	-5.737e-4
-0.498	-2.546e-5	-5.763e-4
-0.499	-2.541e-5	-5.788e-4
-0.500	-2.537e-5	-5.814e-4
-0.501	-2.532e-5	-5.839e-4
-0.502	-2.528e-5	-5.864e-4
-0.503	-2.524e-5	-5.889e-4
-0.504	-2.519e-5	-5.915e-4
-0.505	-2.515e-5	-5.940e-4
-0.506	-2.511e-5	-5.965e-4
-0.507	-2.507e-5	-5.990e-4
-0.508	-2.503e-5	-6.015e-4
-0.509	-2.499e-5	-6.040e-4
-0.510	-2.496e-5	-6.065e-4
-0.511	-2.492e-5	-6.090e-4
-0.512	-2.488e-5	-6.115e-4
-0.513	-2.485e-5	-6.140e-4
-0.514	-2.481e-5	-6.164e-4
-0.515	-2.478e-5	-6.189e-4
-0.516	-2.474e-5	-6.214e-4
-0.517	-2.471e-5	-6.239e-4
-0.518	-2.468e-5	-6.263e-4
-0.519	-2.464e-5	-6.288e-4
-0.520	-2.461e-5	-6.313e-4
-0.521	-2.458e-5	-6.337e-4
-0.522	-2.455e-5	-6.362e-4
-0.523	-2.452e-5	-6.386e-4
-0.524	-2.449e-5	-6.411e-4
-0.525	-2.446e-5	-6.435e-4
-0.526	-2.443e-5	-6.460e-4
-0.527	-2.441e-5	-6.484e-4
-0.528	-2.438e-5	-6.508e-4
-0.529	-2.435e-5	-6.533e-4
-0.530	-2.433e-5	-6.557e-4
-0.531	-2.430e-5	-6.581e-4
-0.532	-2.427e-5	-6.606e-4
-0.533	-2.425e-5	-6.630e-4
-0.534	-2.422e-5	-6.654e-4
-0.535	-2.420e-5	-6.678e-4
-0.536	-2.418e-5	-6.703e-4
-0.537	-2.415e-5	-6.727e-4
-0.538	-2.413e-5	-6.751e-4
-0.539	-2.411e-5	-6.775e-4
-0.540	-2.409e-5	-6.799e-4
-0.541	-2.407e-5	-6.823e-4
-0.542	-2.404e-5	-6.847e-4
-0.543	-2.402e-5	-6.871e-4
-0.544	-2.400e-5	-6.895e-4
-0.545	-2.398e-5	-6.919e-4
-0.546	-2.396e-5	-6.943e-4
-0.547	-2.394e-5	-6.967e-4
-0.548	-2.393e-5	-6.991e-4
-0.549	-2.391e-5	-7.015e-4
-0.550	-2.389e-5	-7.039e-4
-0.551	-2.387e-5	-7.063e-4
-0.552	-2.385e-5	-7.086e-4
-0.553	-2.384e-5	-7.110e-4
-0.554	-2.382e-5	-7.134e-4
-0.555	-2.380e-5	-7.158e-4
-0.556	-2.379e-5	-7.182e-4
-0.557	-2.377e-5	-7.205e-4
-0.558	-2.376e-5	-7.229e-4
-0.559	-2.374e-5	-7.253e-4
-0.560	-2.373e-5	-7.277e-4
-0.561	-2.371e-5	-7.300e-4
-0.562	-2.370e-5	-7.324e-4
-0.563	-2.368e-5	-7.348e-4
-0.564	-2.367e-5	-7.371e-4
-0.565	-2.365e-5	-7.395e-4
-0.566	-2.364e-5	-7.419e-4
-0.567	-2.363e-5	-7.442e-4
-0.568	-2.362e-5	-7.466e-4
-0.569	-2.360e-5	-7.490e-4
-0.570	-2.359e-5	-7.513e-4
-0.571	-2.358e-5	-7.537e-4
-0.572	-2.357e-5	-7.560e-4
-0.573	-2.355e-5	-7.584e-4
-0.574	-2.354e-5	-7.607e-4
-0.575	-2.353e-5	-7.631e-4
-0.576	-2.352e-5	-7.654e-4
-0.577	-2.351e-5	-7.678e-4
-0.578	-2.350e-5	-7.702e-4
-0.579	-2.349e-5	-7.725e-4
-0.580	-2.348e-5	-7.748e-4
-0.581	-2.347e-5	-7.772e-4
-0.582	-2.346e-5	-7.795e-4
-0.583	-2.345e-5	-7.819e-4
-0.584	-2.344e-5	-7.842e-4
-0.585	-2.343e-5	-7.866e-4
-0.586	-2.342e-5	-7.889e-4
-0.587	-2.341e-5	-7.913e-4
-0.588	-2.340e-5	-7.936e-4
-0.589	-2.340e-5	-7.959e-4
-0.590	-2.339e-5	-7.983e-4
-0.591	-2.338e-5	-8.006e-4
-0.592	-2.337e-5	-8.029e-4
-0.593	-2.336e-5	-8.053e-4
-0.594	-2.336e-5	-8.076e-4
-0.595	-2.335e-5	-8.100e-4
-0.596	-2.334e-5	-8.123e-4
-0.597	-2.333e-5	-8.146e-4
-0.598	-2.333e-5	-8.170e-4
-0.599	-2.332e-5	-8.193e-4
-0.600	-2.329e-5	-2.329e-6
-0.599	-2.327e-5	-4.656e-6
-0.598	-2.324e-5	-6.980e-6
-0.597	-2.322e-5	-9.303e-6
-0.596	-2.320e-5	-1.162e-5
-0.595	-2.319e-5	-1.394e-5
-0.594	-2.317e-5	-1.626e-5
-0.593	-2.316e-5	-1.858e-5
-0.592	-2.315e-5	-2.089e-5
-0.591	-2.314e-5	-2.320e-5
-0.590	-2.312e-5	-2.552e-5
-0.589	-2.311e-5	-2.783e-5
-0.588	-2.310e-5	-3.014e-5
-0.587	-2.309e-5	-3.245e-5
-0.586	-2.308e-5	-3.475e-5
-0.585	-2.307e-5	-3.706e-5
-0.584	-2.306e-5	-3.937e-5
-0.583	-2.305e-5	-4.167e-5
-0.582	-2.304e-5	-4.398e-5
-0.581	-2.303e-5	-4.628e-5
-0.580	-2.302e-5	-4.858e-5
-0.579	-2.301e-5	-5.088e-5
-0.578	-2.300e-5	-5.318e-5
-0.577	-2.299e-5	-5.548e-5
-0.576	-2.298e-5	-5.778e-5
-0.575	-2.298e-5	-6.008e-5
-0.574	-2.297e-5	-6.237e-5
-0.573	-2.296e-5	-6.467e-5
-0.572	-2.295e-5	-6.696e-5
-0.571	-2.294e-5	-6.926e-5
-0.570	-2.294e-5	-7.155e-5
-0.569	-2.293e-5	-7.385e-5
-0.568	-2.292e-5	-7.614e-5
-0.567	-2.291e-5	-7.843e-5
-0.566	-2.291e-5	-8.072e-5
-0.565	-2.290e-5	-8.301e-5
-0.564	-2.289e-5	-8.530e-5
-0.563	-2.288e-5	-8.759e-5
-0.562	-2.288e-5	-8.987e-5
-0.561	-2.287e-5	-9.216e-5
-0.560	-2.286e-5	-9.445e-5
-0.559	-2.286e-5	-9.673e-5
-0.558	-2.285e-5	-9.902e-5
-0.557	-2.284e-5	-1.013e-4
-0.556	-2.284e-5	-1.036e-4
-0.555	-2.283e-5	-1.059e-4
-0.554	-2.283e-5	-1.082e-4
-0.553	-2.282e-5	-1.104e-4
-0.552	-2.281e-5	-1.127e-4
-0.551	-2.281e-5	-1.150e-4
-0.550	-2.280e-5	-1.173e-4
-0.549	-2.280e-5	-1.196e-4
-0.548	-2.279e-5	-1.218e-4
-0.547	-2.278e-5	-1.241e-4
-0.546	-2.278e-5	-1.264e-4
-0.545	-2.277e-5	-1.287e-4
-0.544	-2.277e-5	-1.309e-4
-0.543	-2.276e-5	-1.332e-4
-0.542	-2.276e-5	-1.355e-4
-0.541	-2.275e-5	-1.378e-4
-0.540	-2.274e-5	-1.400e-4
-0.539	-2.274e-5	-1.423e-4
-0.538	-2.273e-5	-1.446e-4
-0.537	-2.273e-5	-1.469e-4
-0.536	-2.272e-5	-1.491e-4
-0.535	-2.272e-5	-1.514e-4
-0.534	-2.271e-5	-1.537e-4
-0.533	-2.271e-5	-1.560e-4
-0.532	-2.270e-5	-1.582e-4
-0.531	-2.270e-5	-1.605e-4
-0.530	-2.269e-5	-1.628e-4
-0.529	-2.268e-5	-1.650e-4
-0.528	-2.268e-5	-1.673e-4
-0.527	-2.267e-5	-1.696e-4
-0.526	-2.267e-5	-1.718e-4
-0.525	-2.266e-5	-1.741e-4
-0.524	-2.266e-5	-1.764e-4
-0.523	-2.265e-5	-1.786e-4
-0.522	-2.265e-5	-1.809e-4
-0.521	-2.264e-5	-1.832e-4
-0.520	-2.263e-5	-1.854e-4
-0.519	-2.263e-5	-1.877e-4
-0.518	-2.262e-5	-1.899e-4
-0.517	-2.262e-5	-1.922e-4
-0.516	-2.261e-5	-1.945e-4
-0.515	-2.260e-5	-1.967e-4
-0.514	-2.260e-5	-1.990e-4
-0.513	-2.259e-5	-2.012e-4
-0.512	-2.259e-5	-2.035e-4
-0.511	-2.258e-5	-2.058e-4
-0.510	-2.257e-5	-2.080e-4
-0.509	-2.257e-5	-2.103e-4
-0.508	-2.256e-5	-2.125e-4
-0.507	-2.255e-5	-2.148e-4
-0.506	-2.255e-5	-2.170e-4
-0.505	-2.254e-5	-2.193e-4
-0.504	-2.253e-5	-2.216e-4
-0.503	-2.252e-5	-2.238e-4
-0.502	-2.252e-5	-2.261e-4
-0.501	-2.251e-5	-2.283e-4
-0.500	-2.250e-5	-2.306e-4
-0.499	-2.249e-5	-2.328e-4
-0.498	-2.248e-5	-2.351e-4
-0.497	-2.248e-5	-2.373e-4
-0.496	-2.247e-5	-2.395e-4
-0.495	-2.246e-5	-2.418e-4
-0.494	-2.245e-5	-2.440e-4
-0.493	-2.244e-5	-2.463e-4
-0.492	-2.243e-5	-2.485e-4
-0.491	-2.242e-5	-2.508e-4
-0.490	-2.241e-5	-2.530e-4
-0.489	-2.240e-5	-2.552e-4
-0.488	-2.239e-5	-2.575e-4
-0.487	-2.238e-5	-2.597e-4
-0.486	-2.237e-5	-2.620e-4
-0.485	-2.236e-5	-2.642e-4
-0.484	-2.234e-5	-2.664e-4
-0.483	-2.233e-5	-2.687e-4
-0.482	-2.232e-5	-2.709e-4
-0.481	-2.231e-5	-2.731e-4
-0.480	-2.229e-5	-2.754e-4
-0.479	-2.228e-5	-2.776e-4
-0.478	-2.226e-5	-2.798e-4
-0.477	-2.225e-5	-2.820e-4
-0.476	-2.223e-5	-2.843e-4
-0.475	-2.222e-5	-2.865e-4
-0.474	-2.220e-5	-2.887e-4
-0.473	-2.218e-5	-2.909e-4
-0.472	-2.217e-5	-2.931e-4
-0.471	-2.215e-5	-2.954e-4
-0.470	-2.213e-5	-2.976e-4
-0.469	-2.211e-5	-2.998e-4
-0.468	-2.209e-5	-3.020e-4
-0.467	-2.207e-5	-3.042e-4
-0.466	-2.205e-5	-3.064e-4
-0.465	-2.203e-5	-3.086e-4
-0.464	-2.200e-5	-3.108e-4
-0.463	-2.198e-5	-3.130e-4
-0.462	-2.195e-5	-3.152e-4
-0.461	-2.193e-5	-3.174e-4
-0.460	-2.190e-5	-3.196e-4
-0.459	-2.188e-5	-3.218e-4
-0.458	-2.185e-5	-3.239e-4
-0.457	-2.182e-5	-3.261e-4
-0.456	-2.179e-5	-3.283e-4
-0.455	-2.176e-5	-3.305e-4
-0.454	-2.173e-5	-3.327e-4
-0.453	-2.169e-5	-3.348e-4
-0.452	-2.166e-5	-3.370e-4
-0.451	-2.162e-5	-3.392e-4
-0.450	-2.158e-5	-3.413e-4
-0.449	-2.155e-5	-3.435e-4
-0.448	-2.151e-5	-3.456e-4
-0.447	-2.147e-5	-3.478e-4
-0.446	-2.142e-5	-3.499e-4
-0.445	-2.138e-5	-3.520e-4
-0.444	-2.133e-5	-3.542e-4
-0.443	-2.129e-5	-3.563e-4
-0.442	-2.124e-5	-3.584e-4
-0.441	-2.119e-5	-3.605e-4
-0.440	-2.113e-5	-3.627e-4
-0.439	-2.108e-5	-3.648e-4
-0.438	-2.102e-5	-3.669e-4
-0.437	-2.096e-5	-3.690e-4
-0.436	-2.090e-5	-3.711e-4
-0.435	-2.084e-5	-3.731e-4
-0.434	-2.078e-5	-3.752e-4
-0.433	-2.071e-5	-3.773e-4
-0.432	-2.064e-5	-3.794e-4
-0.431	-2.057e-5	-3.814e-4
-0.430	-2.049e-5	-3.835e-4
-0.429	-2.041e-5	-3.855e-4
-0.428	-2.033e-5	-3.875e-4
-0.427	-2.025e-5	-3.896e-4
-0.426	-2.017e-5	-3.916e-4
-0.425	-2.008e-5	-3.936e-4
-0.424	-1.999e-5	-3.956e-4
-0.423	-1.989e-5	-3.976e-4
-0.422	-1.979e-5	-3.996e-4
-0.421	-1.969e-5	-4.015e-4
-0.420	-1.958e-5	-4.035e-4
-0.419	-1.947e-5	-4.054e-4
-0.418	-1.936e-5	-4.074e-4
-0.417	-1.924e-5	-4.093e-4
-0.416	-1.912e-5	-4.112e-4
-0.415	-1.899e-5	-4.131e-4
-0.414	-1.887e-5	-4.150e-4
-0.413	-1.873e-5	-4.169e-4
-0.412	-1.859e-5	-4.187e-4
-0.411	-1.845e-5	-4.206e-4
-0.410	-1.830e-5	-4.224e-4
-0.409	-1.815e-5	-4.242e-4
-0.408	-1.799e-5	-4.260e-4
-0.407	-1.782e-5	-4.278e-4
-0.406	-1.765e-5	-4.296e-4
-0.405	-1.748e-5	-4.313e-4
-0.404	-1.730e-5	-4.330e-4
-0.403	-1.711e-5	-4.347e-4
-0.402	-1.692e-5	-4.364e-4
-0.401	-1.672e-5	-4.381e-4
-0.400	-1.652e-5	-4.398e-4
-0.399	-1.631e-5	-4.414e-4
-0.398	-1.609e-5	-4.430e-4
-0.397	-1.586e-5	-4.446e-4
-0.396	-1.563e-5	-4.461e-4
-0.395	-1.539e-5	-4.477e-4
-0.394	-1.514e-5	-4.492e-4
-0.393	-1.489e-5	-4.507e-4
-0.392	-1.463e-5	-4.522e-4
-0.391	-1.436e-5	-4.536e-4
-0.390	-1.408e-5	-4.550e-4
-0.389	-1.380e-5	-4.564e-4
-0.388	-1.351e-5	-4.577e-4
-0.387	-1.321e-5	-4.590e-4
-0.386	-1.291e-5	-4.603e-4
-0.385	-1.259e-5	-4.616e-4
-0.384	-1.227e-5	-4.628e-4
-0.383	-1.194e-5	-4.640e-4
-0.382	-1.160e-5	-4.652e-4
-0.381	-1.126e-5	-4.663e-4
-0.380	-1.091e-5	-4.674e-4
-0.379	-1.055e-5	-4.685e-4
-0.378	-1.018e-5	-4.695e-4
-0.377	-9.807e-6	-4.705e-4
-0.376	-9.425e-6	-4.714e-4
-0.375	-9.036e-6	-4.723e-4
-0.374	-8.640e-6	-4.732e-4
-0.373	-8.237e-6	-4.740e-4
-0.372	-7.829e-6	-4.748e-4
-0.371	-7.416e-6	-4.755e-4
-0.370	-6.998e-6	-4.762e-4
-0.369	-6.576e-6	-4.769e-4
-0.368	-6.148e-6	-4.775e-4
-0.367	-5.715e-6	-4.781e-4
-0.366	-5.276e-6	-4.786e-4
-0.365	-4.832e-6	-4.791e-4
-0.364	-4.385e-6	-4.795e-4
-0.363	-3.938e-6	-4.799e-4
-0.362	-3.490e-6	-4.802e-4
-0.361	-3.041e-6	-4.805e-4
-0.360	-2.590e-6	-4.808e-4
-0.359	-2.137e-6	-4.810e-4
-0.358	-1.684e-6	-4.812e-4
-0.357	-1.231e-6	-4.813e-4
-0.356	-7.805e-7	-4.814e-4
-0.355	-3.327e-7	-4.814e-4
-0.354	1.136e-7	-4.814e-4
-0.353	5.578e-7	-4.814e-4
-0.352	9.995e-7	-4.813e-4
-0.351	1.438e-6	-4.811e-4
-0.350	1.869e-6	-4.809e-4
-0.349	2.295e-6	-4.807e-4
-0.348	2.715e-6	-4.804e-4
-0.347	3.129e-6	-4.801e-4
-0.346	3.536e-6	-4.798e-4
-0.345	3.937e-6	-4.794e-4
-0.344	4.331e-6	-4.789e-4
-0.343	4.718e-6	-4.785e-4
-0.342	5.097e-6	-4.780e-4
-0.341	5.469e-6	-4.774e-4
-0.340	5.831e-6	-4.768e-4
-0.339	6.183e-6	-4.762e-4
-0.338	6.524e-6	-4.756e-4
-0.337	6.853e-6	-4.749e-4
-0.336	7.173e-6	-4.741e-4
-0.335	7.482e-6	-4.734e-4
-0.334	7.783e-6	-4.726e-4
-0.333	8.075e-6	-4.718e-4
-0.332	8.356e-6	-4.710e-4
-0.331	8.625e-6	-4.701e-4
-0.330	8.884e-6	-4.692e-4
-0.329	9.132e-6	-4.683e-4
-0.328	9.370e-6	-4.674e-4
-0.327	9.598e-6	-4.664e-4
-0.326	9.815e-6	-4.654e-4
-0.325	1.002e-5	-4.644e-4
-0.324	1.021e-5	-4.634e-4
-0.323	1.040e-5	-4.624e-4
-0.322	1.057e-5	-4.613e-4
-0.321	1.074e-5	-4.602e-4
-0.320	1.089e-5	-4.592e-4
-0.319	1.104e-5	-4.580e-4
-0.318	1.117e-5	-4.569e-4
-0.317	1.130e-5	-4.558e-4
-0.316	1.141e-5	-4.547e-4
-0.315	1.152e-5	-4.535e-4
-0.314	1.163e-5	-4.523e-4
-0.313	1.172e-5	-4.512e-4
-0.312	1.180e-5	-4.500e-4
-0.311	1.187e-5	-4.488e-4
-0.310	1.194e-5	-4.476e-4
-0.309	1.200e-5	-4.464e-4
-0.308	1.205e-5	-4.452e-4
-0.307	1.210e-5	-4.440e-4
-0.306	1.214e-5	-4.428e-4
-0.305	1.217e-5	-4.416e-4
-0.304	1.219e-5	-4.403e-4
-0.303	1.221e-5	-4.391e-4
-0.302	1.222e-5	-4.379e-4
-0.301	1.222e-5	-4.367e-4
-0.300	1.223e-5	-4.355e-4
-0.299	1.222e-5	-4.342e-4
-0.298	1.221e-5	-4.330e-4
-0.297	1.220e-5	-4.318e-4
-0.296	1.218e-5	-4.306e-4
-0.295	1.215e-5	-4.294e-4
-0.294	1.213e-5	-4.282e-4
-0.293	1.209e-5	-4.269e-4
-0.292	1.206e-5	-4.257e-4
-0.291	1.202e-5	-4.245e-4
-0.290	1.198e-5	-4.233e-4
-0.289	1.193e-5	-4.221e-4
-0.288	1.188e-5	-4.210e-4
-0.287	1.183e-5	-4.198e-4
-0.286	1.177e-5	-4.186e-4
-0.285	1.172e-5	-4.174e-4
-0.284	1.166e-5	-4.163e-4
-0.283	1.160e-5	-4.151e-4
-0.282	1.153e-5	-4.139e-4
-0.281	1.147e-5	-4.128e-4
-0.280	1.140e-5	-4.117e-4
-0.279	1.133e-5	-4.105e-4
-0.278	1.126e-5	-4.094e-4
-0.277	1.119e-5	-4.083e-4
-0.276	1.112e-5	-4.072e-4
-0.275	1.104e-5	-4.061e-4
-0.274	1.097e-5	-4.050e-4
-0.273	1.089e-5	-4.039e-4
-0.272	1.081e-5	-4.028e-4
-0.271	1.073e-5	-4.017e-4
-0.270	1.065e-5	-4.007e-4
-0.269	1.057e-5	-3.996e-4
-0.268	1.049e-5	-3.986e-4
-0.267	1.040e-5	-3.975e-4
-0.266	1.032e-5	-3.965e-4
-0.265	1.023e-5	-3.955e-4
-0.264	1.015e-5	-3.944e-4
-0.263	1.006e-5	-3.934e-4
-0.262	9.977e-6	-3.924e-4
-0.261	9.890e-6	-3.914e-4
-0.260	9.802e-6	-3.905e-4
-0.259	9.713e-6	-3.895e-4
-0.258	9.625e-6	-3.885e-4
-0.257	9.536e-6	-3.876e-4
-0.256	9.446e-6	-3.866e-4
-0.255	9.356e-6	-3.857e-4
-0.254	9.265e-6	-3.848e-4
-0.253	9.173e-6	-3.839e-4
-0.252	9.082e-6	-3.829e-4
-0.251	8.990e-6	-3.821e-4
-0.250	8.898e-6	-3.812e-4
-0.249	8.805e-6	-3.803e-4
-0.248	8.712e-6	-3.794e-4
-0.247	8.618e-6	-3.785e-4
-0.246	8.524e-6	-3.777e-4
-0.245	8.431e-6	-3.769e-4
-0.244	8.337e-6	-3.760e-4
-0.243	8.244e-6	-3.752e-4
-0.242	8.151e-6	-3.744e-4
-0.241	8.057e-6	-3.736e-4
-0.240	7.962e-6	-3.728e-4
-0.239	7.867e-6	-3.720e-4
-0.238	7.773e-6	-3.712e-4
-0.237	7.679e-6	-3.704e-4
-0.236	7.584e-6	-3.697e-4
-0.235	7.490e-6	-3.689e-4
-0.234	7.396e-6	-3.682e-4
-0.233	7.302e-6	-3.675e-4
-0.232	7.208e-6	-3.667e-4
-0.231	7.114e-6	-3.660e-4
-0.230	7.020e-6	-3.653e-4
-0.229	6.927e-6	-3.646e-4
-0.228	6.835e-6	-3.640e-4
-0.227	6.743e-6	-3.633e-4
-0.226	6.651e-6	-3.626e-4
-0.225	6.560e-6	-3.620e-4
-0.224	6.469e-6	-3.613e-4
-0.223	6.379e-6	-3.607e-4
-0.222	6.288e-6	-3.600e-4
-0.221	6.198e-6	-3.594e-4
-0.220	6.109e-6	-3.588e-4
-0.219	6.021e-6	-3.582e-4
-0.218	5.933e-6	-3.576e-4
-0.217	5.846e-6	-3.570e-4
-0.216	5.760e-6	-3.565e-4
-0.215	5.674e-6	-3.559e-4
-0.214	5.589e-6	-3.553e-4
-0.213	5.505e-6	-3.548e-4
-0.212	5.421e-6	-3.542e-4
-0.211	5.338e-6	-3.537e-4
-0.210	5.257e-6	-3.532e-4
-0.209	5.176e-6	-3.527e-4
-0.208	5.097e-6	-3.522e-4
-0.207	5.018e-6	-3.517e-4
-0.206	4.940e-6	-3.512e-4
-0.205	4.862e-6	-3.507e-4
-0.204	4.786e-6	-3.502e-4
-0.203	4.710e-6	-3.497e-4
-0.202	4.635e-6	-3.493e-4
-0.201	4.561e-6	-3.488e-4
-0.200	4.489e-6	-3.484e-4
-0.199	4.417e-6	-3.479e-4
-0.198	4.346e-6	-3.475e-4
-0.197	4.276e-6	-3.471e-4
-0.196	4.207e-6	-3.466e-4
-0.195	4.139e-6	-3.462e-4
-0.194	4.072e-6	-3.458e-4
-0.193	4.006e-6	-3.454e-4
-0.192	3.940e-6	-3.450e-4
-0.191	3.876e-6	-3.446e-4
-0.190	3.812e-6	-3.442e-4
-0.189	3.750e-6	-3.439e-4
-0.188	3.689e-6	-3.435e-4
-0.187	3.628e-6	-3.431e-4
-0.186	3.569e-6	-3.428e-4
-0.185	3.510e-6	-3.424e-4
-0.184	3.453e-6	-3.421e-4
-0.183	3.396e-6	-3.417e-4
-0.182	3.340e-6	-3.414e-4
-0.181	3.285e-6	-3.411e-4
-0.180	3.231e-6	-3.408e-4
-0.179	3.178e-6	-3.404e-4
-0.178	3.125e-6	-3.401e-4
-0.177	3.074e-6	-3.398e-4
-0.176	3.023e-6	-3.395e-4
-0.175	2.973e-6	-3.392e-4
-0.174	2.924e-6	-3.389e-4
-0.173	2.876e-6	-3.386e-4
-0.172	2.829e-6	-3.384e-4
-0.171	2.782e-6	-3.381e-4
-0.170	2.737e-6	-3.378e-4
-0.169	2.692e-6	-3.375e-4
-0.168	2.647e-6	-3.373e-4
-0.167	2.604e-6	-3.370e-4
-0.166	2.562e-6	-3.368e-4
-0.165	2.520e-6	-3.365e-4
-0.164	2.479e-6	-3.363e-4
-0.163	2.439e-6	-3.360e-4
-0.162	2.399e-6	-3.358e-4
-0.161	2.360e-6	-3.355e-4
-0.160	2.322e-6	-3.353e-4
-0.159	2.284e-6	-3.351e-4
-0.158	2.248e-6	-3.349e-4
-0.157	2.212e-6	-3.346e-4
-0.156	2.176e-6	-3.344e-4
-0.155	2.142e-6	-3.342e-4
-0.154	2.108e-6	-3.340e-4
-0.153	2.075e-6	-3.338e-4
-0.152	2.043e-6	-3.336e-4
-0.151	2.011e-6	-3.334e-4
-0.150	1.980e-6	-3.332e-4
-0.149	1.950e-6	-3.330e-4
-0.148	1.921e-6	-3.328e-4
-0.147	1.892e-6	-3.326e-4
-0.146	1.863e-6	-3.324e-4
-0.145	1.836e-6	-3.322e-4
-0.144	1.808e-6	-3.321e-4
-0.143	1.782e-6	-3.319e-4
-0.142	1.756e-6	-3.317e-4
-0.141	1.731e-6	-3.315e-4
-0.140	1.706e-6	-3.314e-4
-0.139	1.682e-6	-3.312e-4
-0.138	1.659e-6	-3.310e-4
-0.137	1.636e-6	-3.309e-4
-0.136	1.614e-6	-3.307e-4
-0.135	1.593e-6	-3.305e-4
-0.134	1.572e-6	-3.304e-4
-0.133	1.552e-6	-3.302e-4
-0.132	1.532e-6	-3.301e-4
-0.131	1.513e-6	-3.299e-4
-0.130	1.495e-6	-3.298e-4
-0.129	1.477e-6	-3.296e-4
-0.128	1.460e-6	-3.295e-4
-0.127	1.444e-6	-3.293e-4
-0.126	1.428e-6	-3.292e-4
-0.125	1.413e-6	-3.290e-4
-0.124	1.398e-6	-3.289e-4
-0.123	1.384e-6	-3.288e-4
-0.122	1.371e-6	-3.286e-4
-0.121	1.358e-6	-3.285e-4
-0.120	1.346e-6	-3.284e-4
-0.119	1.334e-6	-3.282e-4
-0.118	1.322e-6	-3.281e-4
-0.117	1.311e-6	-3.280e-4
-0.116	1.301e-6	-3.278e-4
-0.115	1.291e-6	-3.277e-4
-0.114	1.281e-6	-3.276e-4
-0.113	1.271e-6	-3.275e-4
-0.112	1.262e-6	-3.273e-4
-0.111	1.253e-6	-3.272e-4
-0.110	1.244e-6	-3.271e-4
-0.109	1.235e-6	-3.270e-4
-0.108	1.226e-6	-3.268e-4
-0.107	1.218e-6	-3.267e-4
-0.106	1.209e-6	-3.266e-4
-0.105	1.200e-6	-3.265e-4
-0.104	1.191e-6	-3.263e-4
-0.103	1.183e-6	-3.262e-4
-0.102	1.174e-6	-3.261e-4
-0.101	1.165e-6	-3.260e-4
-0.100	1.155e-6	-3.259e-4
-0.099	1.146e-6	-3.258e-4
-0.098	1.136e-6	-3.257e-4
-0.097	1.126e-6	-3.255e-4
-0.096	1.116e-6	-3.254e-4
-0.095	1.106e-6	-3.253e-4
-0.094	1.096e-6	-3.252e-4
-0.093	1.085e-6	-3.251e-4
-0.092	1.074e-6	-3.250e-4
-0.091	1.063e-6	-3.249e-4
-0.090	1.052e-6	-3.248e-4
-0.089	1.041e-6	-3.247e-4
-0.088	1.029e-6	-3.246e-4
-0.087	1.018e-6	-3.245e-4
-0.086	1.006e-6	-3.244e-4
-0.085	9.948e-7	-3.243e-4
-0.084	9.832e-7	-3.242e-4
-0.083	9.717e-7	-3.241e-4
-0.082	9.601e-7	-3.240e-4
-0.081	9.486e-7	-3.239e-4
-0.080	9.370e-7	-3.238e-4
-0.079	9.255e-7	-3.237e-4
-0.078	9.140e-7	-3.236e-4
-0.077	9.025e-7	-3.235e-4
-0.076	8.912e-7	-3.234e-4
-0.075	8.801e-7	-3.233e-4
-0.074	8.691e-7	-3.233e-4
-0.073	8.582e-7	-3.232e-4
-0.072	8.474e-7	-3.231e-4
-0.071	8.367e-7	-3.230e-4
-0.070	8.263e-7	-3.229e-4
-0.069	8.159e-7	-3.228e-4
-0.068	8.058e-7	-3.228e-4
-0.067	7.958e-7	-3.227e-4
-0.066	7.860e-7	-3.226e-4
-0.065	7.764e-7	-3.225e-4
-0.064	7.670e-7	-3.224e-4
-0.063	7.576e-7	-3.224e-4
-0.062	7.484e-7	-3.223e-4
-0.061	7.393e-7	-3.222e-4
-0.060	7.305e-7	-3.221e-4
-0.059	7.220e-7	-3.221e-4
-0.058	7.136e-7	-3.220e-4
-0.057	7.054e-7	-3.219e-4
-0.056	6.973e-7	-3.219e-4
-0.055	6.894e-7	-3.218e-4
-0.054	6.817e-7	-3.217e-4
-0.053	6.742e-7	-3.217e-4
-0.052	6.668e-7	-3.216e-4
-0.051	6.596e-7	-3.215e-4
-0.050	6.525e-7	-3.215e-4
-0.049	6.456e-7	-3.214e-4
-0.048	6.388e-7	-3.213e-4
-0.047	6.321e-7	-3.213e-4
-0.046	6.256e-7	-3.212e-4
-0.045	6.192e-7	-3.211e-4
-0.044	6.130e-7	-3.211e-4
-0.043	6.069e-7	-3.210e-4
-0.042	6.009e-7	-3.210e-4
-0.041	5.951e-7	-3.209e-4
-0.040	5.894e-7	-3.208e-4
-0.039	5.838e-7	-3.208e-4
-0.038	5.784e-7	-3.207e-4
-0.037	5.731e-7	-3.207e-4
-0.036	5.679e-7	-3.206e-4
-0.035	5.628e-7	-3.206e-4
-0.034	5.579e-7	-3.205e-4
-0.033	5.530e-7	-3.204e-4
-0.032	5.483e-7	-3.204e-4
-0.031	5.436e-7	-3.203e-4
-0.030	5.389e-7	-3.203e-4
-0.029	5.343e-7	-3.202e-4
-0.028	5.299e-7	-3.202e-4
-0.027	5.256e-7	-3.201e-4
-0.026	5.214e-7	-3.201e-4
-0.025	5.173e-7	-3.200e-4
-0.024	5.132e-7	-3.200e-4
-0.023	5.092e-7	-3.199e-4
-0.022	5.053e-7	-3.199e-4
-0.021	5.016e-7	-3.198e-4
-0.020	4.979e-7	-3.198e-4
-0.019	4.943e-7	-3.197e-4
-0.018	4.908e-7	-3.197e-4
-0.017	4.872e-7	-3.196e-4
-0.016	4.838e-7	-3.196e-4
-0.015	4.804e-7	-3.195e-4
-0.014	4.772e-7	-3.195e-4
-0.013	4.741e-7	-3.194e-4
-0.012	4.710e-7	-3.194e-4
-0.011	4.680e-7	-3.193e-4
-0.010	4.651e-7	-3.193e-4
-0.009	4.621e-7	-3.192e-4
-0.008	4.592e-7	-3.192e-4
-0.007	4.564e-7	-3.191e-4
-0.006	4.537e-7	-3.191e-4
-0.005	4.510e-7	-3.191e-4
-0.004	4.484e-7	-3.190e-4
-0.003	4.458e-7	-3.190e-4
-0.002	4.433e-7	-3.189e-4
-0.001	4.409e-7	-3.189e-4
-0.000	4.029e-7	4.029e-8
-0.001	3.683e-7	7.711e-8
-0.002	3.397e-7	1.111e-7
-0.003	3.172e-7	1.428e-7
-0.004	3.027e-7	1.731e-7
-0.005	2.922e-7	2.023e-7
-0.006	2.833e-7	2.306e-7
-0.007	2.740e-7	2.580e-7
-0.008	2.654e-7	2.846e-7
-0.009	2.572e-7	3.103e-7
-0.010	2.496e-7	3.352e-7
-0.011	2.423e-7	3.595e-7
-0.012	2.353e-7	3.830e-7
-0.013	2.287e-7	4.059e-7
-0.014	2.223e-7	4.281e-7
-0.015	2.162e-7	4.497e-7
-0.016	2.103e-7	4.707e-7
-0.017	2.046e-7	4.912e-7
-0.018	1.990e-7	5.111e-7
-0.019	1.936e-7	5.305e-7
-0.020	1.884e-7	5.493e-7
-0.021	1.833e-7	5.676e-7
-0.022	1.784e-7	5.855e-7
-0.023	1.736e-7	6.028e-7
-0.024	1.690e-7	6.197e-7
-0.025	1.644e-7	6.362e-7
-0.026	1.600e-7	6.522e-7
-0.027	1.557e-7	6.678e-7
-0.028	1.514e-7	6.829e-7
-0.029	1.472e-7	6.976e-7
-0.030	1.430e-7	7.119e-7
-0.031	1.389e-7	7.258e-7
-0.032	1.349e-7	7.393e-7
-0.033	1.310e-7	7.524e-7
-0.034	1.272e-7	7.651e-7
-0.035	1.234e-7	7.775e-7
-0.036	1.196e-7	7.894e-7
-0.037	1.158e-7	8.010e-7
-0.038	1.121e-7	8.122e-7
-0.039	1.085e-7	8.231e-7
-0.040	1.049e-7	8.336e-7
-0.041	1.015e-7	8.437e-7
-0.042	9.809e-8	8.535e-7
-0.043	9.468e-8	8.630e-7
-0.044	9.128e-8	8.721e-7
-0.045	8.794e-8	8.809e-7
-0.046	8.463e-8	8.894e-7
-0.047	8.138e-8	8.975e-7
-0.048	7.816e-8	9.053e-7
-0.049	7.497e-8	9.128e-7
-0.050	7.179e-8	9.200e-7
-0.051	6.863e-8	9.269e-7
-0.052	6.547e-8	9.334e-7
-0.053	6.233e-8	9.396e-7
-0.054	5.919e-8	9.456e-7
-0.055	5.607e-8	9.512e-7
-0.056	5.294e-8	9.565e-7
-0.057	4.980e-8	9.614e-7
-0.058	4.667e-8	9.661e-7
-0.059	4.355e-8	9.705e-7
-0.060	4.044e-8	9.745e-7
-0.061	3.735e-8	9.782e-7
-0.062	3.421e-8	9.817e-7
-0.063	3.103e-8	9.848e-7
-0.064	2.782e-8	9.875e-7
-0.065	2.455e-8	9.900e-7
-0.066	2.125e-8	9.921e-7
-0.067	1.793e-8	9.939e-7
-0.068	1.462e-8	9.954e-7
-0.069	1.130e-8	9.965e-7
-0.070	7.954e-9	9.973e-7
-0.071	4.561e-9	9.978e-7
-0.072	1.076e-9	9.979e-7
-0.073	-2.521e-9	9.976e-7
-0.074	-6.195e-9	9.970e-7
-0.075	-9.925e-9	9.960e-7
-0.076	-1.367e-8	9.946e-7
-0.077	-1.745e-8	9.929e-7
-0.078	-2.137e-8	9.908e-7
-0.079	-2.543e-8	9.882e-7
-0.080	-2.966e-8	9.852e-7
-0.081	-3.399e-8	9.818e-7
-0.082	-3.833e-8	9.780e-7
-0.083	-4.269e-8	9.737e-7
-0.084	-4.713e-8	9.690e-7
-0.085	-5.166e-8	9.639e-7
-0.086	-5.631e-8	9.582e-7
-0.087	-6.103e-8	9.521e-7
-0.088	-6.581e-8	9.456e-7
-0.089	-7.065e-8	9.385e-7
-0.090	-7.554e-8	9.309e-7
-0.091	-8.052e-8	9.229e-7
-0.092	-8.557e-8	9.143e-7
-0.093	-9.065e-8	9.053e-7
-0.094	-9.580e-8	8.957e-7
-0.095	-1.010e-7	8.856e-7
-0.096	-1.062e-7	8.750e-7
-0.097	-1.114e-7	8.638e-7
-0.098	-1.165e-7	8.522e-7
-0.099	-1.216e-7	8.400e-7
-0.100	-1.267e-7	8.274e-7
-0.101	-1.318e-7	8.142e-7
-0.102	-1.368e-7	8.005e-7
-0.103	-1.417e-7	7.863e-7
-0.104	-1.465e-7	7.717e-7
-0.105	-1.511e-7	7.566e-7
-0.106	-1.555e-7	7.410e-7
-0.107	-1.599e-7	7.250e-7
-0.108	-1.642e-7	7.086e-7
-0.109	-1.683e-7	6.918e-7
-0.110	-1.723e-7	6.745e-7
-0.111	-1.761e-7	6.569e-7
-0.112	-1.796e-7	6.390e-7
-0.113	-1.830e-7	6.207e-7
-0.114	-1.862e-7	6.020e-7
-0.115	-1.893e-7	5.831e-7
-0.116	-1.922e-7	5.639e-7
-0.117	-1.949e-7	5.444e-7
-0.118	-1.975e-7	5.247e-7
-0.119	-1.999e-7	5.047e-7
-0.120	-2.023e-7	4.844e-7
-0.121	-2.046e-7	4.640e-7
-0.122	-2.067e-7	4.433e-7
-0.123	-2.087e-7	4.224e-7
-0.124	-2.106e-7	4.014e-7
-0.125	-2.124e-7	3.801e-7
-0.126	-2.141e-7	3.587e-7
-0.127	-2.158e-7	3.371e-7
-0.128	-2.174e-7	3.154e-7
-0.129	-2.189e-7	2.935e-7
-0.130	-2.204e-7	2.715e-7
-0.131	-2.219e-7	2.493e-7
-0.132	-2.234e-7	2.270e-7
-0.133	-2.250e-7	2.045e-7
-0.134	-2.266e-7	1.818e-7
-0.135	-2.282e-7	1.590e-7
-0.136	-2.297e-7	1.360e-7
-0.137	-2.314e-7	1.129e-7
-0.138	-2.330e-7	8.957e-8
-0.139	-2.348e-7	6.609e-8
-0.140	-2.366e-7	4.243e-8
-0.141	-2.384e-7	1.859e-8
-0.142	-2.404e-7	-5.448e-9
-0.143	-2.424e-7	-2.969e-8
-0.144	-2.445e-7	-5.414e-8
-0.145	-2.468e-7	-7.882e-8
-0.146	-2.492e-7	-1.037e-7
-0.147	-2.516e-7	-1.289e-7
-0.148	-2.543e-7	-1.543e-7
-0.149	-2.570e-7	-1.800e-7
-0.150	-2.598e-7	-2.060e-7
-0.151	-2.626e-7	-2.323e-7
-0.152	-2.656e-7	-2.588e-7
-0.153	-2.688e-7	-2.857e-7
-0.154	-2.721e-7	-3.129e-7
-0.155	-2.756e-7	-3.405e-7
-0.156	-2.792e-7	-3.684e-7
-0.157	-2.830e-7	-3.967e-7
-0.158	-2.869e-7	-4.254e-7
-0.159	-2.910e-7	-4.545e-7
-0.160	-2.952e-7	-4.840e-7
-0.161	-2.997e-7	-5.140e-7
-0.162	-3.043e-7	-5.444e-7
-0.163	-3.091e-7	-5.753e-7
-0.164	-3.141e-7	-6.067e-7
-0.165	-3.193e-7	-6.386e-7
-0.166	-3.246e-7	-6.711e-7
-0.167	-3.302e-7	-7.041e-7
-0.168	-3.360e-7	-7.377e-7
-0.169	-3.421e-7	-7.719e-7
-0.170	-3.484e-7	-8.068e-7
-0.171	-3.550e-7	-8.423e-7
-0.172	-3.619e-7	-8.785e-7
-0.173	-3.690e-7	-9.154e-7
-0.174	-3.765e-7	-9.530e-7
-0.175	-3.841e-7	-9.914e-7
-0.176	-3.921e-7	-1.031e-6
-0.177	-4.004e-7	-1.071e-6
-0.178	-4.090e-7	-1.112e-6
-0.179	-4.180e-7	-1.153e-6
-0.180	-4.273e-7	-1.196e-6
-0.181	-4.369e-7	-1.240e-6
-0.182	-4.469e-7	-1.285e-6
-0.183	-4.573e-7	-1.330e-6
-0.184	-4.681e-7	-1.377e-6
-0.185	-4.794e-7	-1.425e-6
-0.186	-4.911e-7	-1.474e-6
-0.187	-5.031e-7	-1.524e-6
-0.188	-5.157e-7	-1.576e-6
-0.189	-5.287e-7	-1.629e-6
-0.190	-5.422e-7	-1.683e-6
-0.191	-5.563e-7	-1.739e-6
-0.192	-5.709e-7	-1.796e-6
-0.193	-5.859e-7	-1.854e-6
-0.194	-6.014e-7	-1.914e-6
-0.195	-6.174e-7	-1.976e-6
-0.196	-6.341e-7	-2.040e-6
-0.197	-6.516e-7	-2.105e-6
-0.198	-6.698e-7	-2.172e-6
-0.199	-6.887e-7	-2.241e-6
-0.200	-7.083e-7	-2.311e-6
-0.201	-7.284e-7	-2.384e-6
-0.202	-7.493e-7	-2.459e-6
-0.203	-7.709e-7	-2.536e-6
-0.204	-7.934e-7	-2.616e-6
-0.205	-8.167e-7	-2.697e-6
-0.206	-8.410e-7	-2.781e-6
-0.207	-8.660e-7	-2.868e-6
-0.208	-8.920e-7	-2.957e-6
-0.209	-9.188e-7	-3.049e-6
-0.210	-9.466e-7	-3.144e-6
-0.211	-9.754e-7	-3.241e-6
-0.212	-1.005e-6	-3.342e-6
-0.213	-1.035e-6	-3.445e-6
-0.214	-1.067e-6	-3.552e-6
-0.215	-1.099e-6	-3.662e-6
-0.216	-1.133e-6	-3.775e-6
-0.217	-1.168e-6	-3.892e-6
-0.218	-1.203e-6	-4.012e-6
-0.219	-1.240e-6	-4.136e-6
-0.220	-1.278e-6	-4.264e-6
-0.221	-1.317e-6	-4.396e-6
-0.222	-1.358e-6	-4.532e-6
-0.223	-1.401e-6	-4.672e-6
-0.224	-1.444e-6	-4.816e-6
-0.225	-1.489e-6	-4.965e-6
-0.226	-1.536e-6	-5.119e-6
-0.227	-1.583e-6	-5.277e-6
-0.228	-1.633e-6	-5.440e-6
-0.229	-1.684e-6	-5.609e-6
-0.230	-1.736e-6	-5.782e-6
-0.231	-1.790e-6	-5.961e-6
-0.232	-1.845e-6	-6.146e-6
-0.233	-1.902e-6	-6.336e-6
-0.234	-1.961e-6	-6.532e-6
-0.235	-2.022e-6	-6.734e-6
-0.236	-2.084e-6	-6.943e-6
-0.237	-2.149e-6	-7.158e-6
-0.238	-2.215e-6	-7.379e-6
-0.239	-2.283e-6	-7.607e-6
-0.240	-2.353e-6	-7.843e-6
-0.241	-2.426e-6	-8.085e-6
-0.242	-2.500e-6	-8.335e-6
-0.243	-2.577e-6	-8.593e-6
-0.244	-2.656e-6	-8.859e-6
-0.245	-2.737e-6	-9.132e-6
-0.246	-2.820e-6	-9.414e-6
-0.247	-2.906e-6	-9.705e-6
-0.248	-2.995e-6	-1.000e-5
-0.249	-3.087e-6	-1.031e-5
-0.250	-3.182e-6	-1.063e-5
-0.251	-3.279e-6	-1.096e-5
-0.252	-3.380e-6	-1.130e-5
-0.253	-3.483e-6	-1.165e-5
-0.254	-3.589e-6	-1.200e-5
-0.255	-3.698e-6	-1.237e-5
-0.256	-3.810e-6	-1.276e-5
-0.257	-3.926e-6	-1.315e-5
-0.258	-4.046e-6	-1.355e-5
-0.259	-4.170e-6	-1.397e-5
-0.260	-4.297e-6	-1.440e-5
-0.261	-4.428e-6	-1.484e-5
-0.262	-4.563e-6	-1.530e-5
-0.263	-4.702e-6	-1.577e-5
-0.264	-4.846e-6	-1.625e-5
-0.265	-4.995e-6	-1.675e-5
-0.266	-5.148e-6	-1.727e-5
-0.267	-5.305e-6	-1.780e-5
-0.268	-5.468e-6	-1.834e-5
-0.269	-5.636e-6	-1.891e-5
-0.270	-5.809e-6	-1.949e-5
-0.271	-5.987e-6	-2.009e-5
-0.272	-6.171e-6	-2.070e-5
-0.273	-6.361e-6	-2.134e-5
-0.274	-6.556e-6	-2.200e-5
-0.275	-6.759e-6	-2.267e-5
-0.276	-6.967e-6	-2.337e-5
-0.277	-7.181e-6	-2.409e-5
-0.278	-7.402e-6	-2.483e-5
-0.279	-7.629e-6	-2.559e-5
-0.280	-7.863e-6	-2.638e-5
-0.281	-8.105e-6	-2.719e-5
-0.282	-8.353e-6	-2.802e-5
-0.283	-8.609e-6	-2.888e-5
-0.284	-8.871e-6	-2.977e-5
-0.285	-9.140e-6	-3.068e-5
-0.286	-9.417e-6	-3.163e-5
-0.287	-9.702e-6	-3.260e-5
-0.288	-9.994e-6	-3.360e-5
-0.289	-1.029e-5	-3.463e-5
-0.290	-1.060e-5	-3.569e-5
-0.291	-1.091e-5	-3.678e-5
-0.292	-1.124e-5	-3.790e-5
-0.293	-1.157e-5	-3.906e-5
-0.294	-1.190e-5	-4.025e-5
-0.295	-1.225e-5	-4.147e-5
-0.296	-1.260e-5	-4.273e-5
-0.297	-1.296e-5	-4.403e-5
-0.298	-1.332e-5	-4.536e-5
-0.299	-1.370e-5	-4.673e-5
-0.300	-1.407e-5	-4.814e-5
-0.301	-1.446e-5	-4.958e-5
-0.302	-1.485e-5	-5.107e-5
-0.303	-1.525e-5	-5.259e-5
-0.304	-1.565e-5	-5.416e-5
-0.305	-1.606e-5	-5.577e-5
-0.306	-1.648e-5	-5.741e-5
-0.307	-1.690e-5	-5.910e-5
-0.308	-1.733e-5	-6.084e-5
-0.309	-1.776e-5	-6.261e-5
-0.310	-1.820e-5	-6.443e-5
-0.311	-1.863e-5	-6.630e-5
-0.312	-1.908e-5	-6.820e-5
-0.313	-1.952e-5	-7.016e-5
-0.314	-1.998e-5	-7.215e-5
-0.315	-2.043e-5	-7.420e-5
-0.316	-2.089e-5	-7.629e-5
-0.317	-2.135e-5	-7.842e-5
-0.318	-2.181e-5	-8.060e-5
-0.319	-2.228e-5	-8.283e-5
-0.320	-2.275e-5	-8.511e-5
-0.321	-2.322e-5	-8.743e-5
-0.322	-2.369e-5	-8.980e-5
-0.323	-2.416e-5	-9.221e-5
-0.324	-2.464e-5	-9.468e-5
-0.325	-2.511e-5	-9.719e-5
-0.326	-2.559e-5	-9.975e-5
-0.327	-2.606e-5	-1.024e-4
-0.328	-2.654e-5	-1.050e-4
-0.329	-2.701e-5	-1.077e-4
-0.330	-2.748e-5	-1.105e-4
-0.331	-2.795e-5	-1.132e-4
-0.332	-2.842e-5	-1.161e-4
-0.333	-2.888e-5	-1.190e-4
-0.334	-2.934e-5	-1.219e-4
-0.335	-2.980e-5	-1.249e-4
-0.336	-3.025e-5	-1.279e-4
-0.337	-3.070e-5	-1.310e-4
-0.338	-3.114e-5	-1.341e-4
-0.339	-3.158e-5	-1.373e-4
-0.340	-3.201e-5	-1.405e-4
-0.341	-3.243e-5	-1.437e-4
-0.342	-3.284e-5	-1.470e-4
-0.343	-3.325e-5	-1.503e-4
-0.344	-3.364e-5	-1.537e-4
-0.345	-3.404e-5	-1.571e-4
-0.346	-3.442e-5	-1.605e-4
-0.347	-3.479e-5	-1.640e-4
-0.348	-3.514e-5	-1.675e-4
-0.349	-3.549e-5	-1.711e-4
-0.350	-3.582e-5	-1.746e-4
-0.351	-3.615e-5	-1.783e-4
-0.352	-3.646e-5	-1.819e-4
-0.353	-3.676e-5	-1.856e-4
-0.354	-3.705e-5	-1.893e-4
-0.355	-3.731e-5	-1.930e-4
-0.356	-3.757e-5	-1.968e-4
-0.357	-3.781e-5	-2.006e-4
-0.358	-3.803e-5	-2.044e-4
-0.359	-3.824e-5	-2.082e-4
-0.360	-3.844e-5	-2.120e-4
-0.361	-3.862e-5	-2.159e-4
-0.362	-3.878e-5	-2.198e-4
-0.363	-3.894e-5	-2.237e-4
-0.364	-3.908e-5	-2.276e-4
-0.365	-3.920e-5	-2.315e-4
-0.366	-3.931e-5	-2.354e-4
-0.367	-3.939e-5	-2.394e-4
-0.368	-3.947e-5	-2.433e-4
-0.369	-3.952e-5	-2.473e-4
-0.370	-3.957e-5	-2.512e-4
-0.371	-3.960e-5	-2.552e-4
-0.372	-3.963e-5	-2.591e-4
-0.373	-3.963e-5	-2.631e-4
-0.374	-3.962e-5	-2.671e-4
-0.375	-3.960e-5	-2.710e-4
-0.376	-3.957e-5	-2.750e-4
-0.377	-3.953e-5	-2.789e-4
-0.378	-3.948e-5	-2.829e-4
-0.379	-3.941e-5	-2.868e-4
-0.380	-3.934e-5	-2.908e-4
-0.381	-3.925e-5	-2.947e-4
-0.382	-3.916e-5	-2.986e-4
-0.383	-3.906e-5	-3.025e-4
-0.384	-3.895e-5	-3.064e-4
-0.385	-3.884e-5	-3.103e-4
-0.386	-3.871e-5	-3.142e-4
-0.387	-3.858e-5	-3.180e-4
-0.388	-3.844e-5	-3.219e-4
-0.389	-3.830e-5	-3.257e-4
-0.390	-3.815e-5	-3.295e-4
-0.391	-3.800e-5	-3.333e-4
-0.392	-3.784e-5	-3.371e-4
-0.393	-3.768e-5	-3.409e-4
-0.394	-3.752e-5	-3.446e-4
-0.395	-3.735e-5	-3.483e-4
-0.396	-3.718e-5	-3.521e-4
-0.397	-3.701e-5	-3.558e-4
-0.398	-3.684e-5	-3.594e-4
-0.399	-3.666e-5	-3.631e-4
-0.400	-3.649e-5	-3.668e-4
-0.401	-3.631e-5	-3.704e-4
-0.402	-3.613e-5	-3.740e-4
-0.403	-3.595e-5	-3.776e-4
-0.404	-3.577e-5	-3.812e-4
-0.405	-3.559e-5	-3.847e-4
-0.406	-3.541e-5	-3.883e-4
-0.407	-3.523e-5	-3.918e-4
-0.408	-3.505e-5	-3.953e-4
-0.409	-3.487e-5	-3.988e-4
-0.410	-3.469e-5	-4.023e-4
-0.411	-3.452e-5	-4.057e-4
-0.412	-3.434e-5	-4.091e-4
-0.413	-3.417e-5	-4.126e-4
-0.414	-3.399e-5	-4.160e-4
-0.415	-3.382e-5	-4.193e-4
-0.416	-3.365e-5	-4.227e-4
-0.417	-3.348e-5	-4.261e-4
-0.418	-3.331e-5	-4.294e-4
-0.419	-3.314e-5	-4.327e-4
-0.420	-3.298e-5	-4.360e-4
-0.421	-3.281e-5	-4.393e-4
-0.422	-3.265e-5	-4.425e-4
-0.423	-3.249e-5	-4.458e-4
-0.424	-3.233e-5	-4.490e-4
-0.425	-3.218e-5	-4.522e-4
-0.426	-3.202e-5	-4.555e-4
-0.427	-3.187e-5	-4.586e-4
-0.428	-3.172e-5	-4.618e-4
-0.429	-3.157e-5	-4.650e-4
-0.430	-3.142e-5	-4.681e-4
-0.431	-3.128e-5	-4.712e-4
-0.432	-3.114e-5	-4.744e-4
-0.433	-3.100e-5	-4.774e-4
-0.434	-3.086e-5	-4.805e-4
-0.435	-3.072e-5	-4.836e-4
-0.436	-3.058e-5	-4.867e-4
-0.437	-3.045e-5	-4.897e-4
-0.438	-3.032e-5	-4.927e-4
-0.439	-3.019e-5	-4.958e-4
-0.440	-3.006e-5	-4.988e-4
-0.441	-2.994e-5	-5.018e-4
-0.442	-2.981e-5	-5.047e-4
-0.443	-2.969e-5	-5.077e-4
-0.444	-2.957e-5	-5.107e-4
-0.445	-2.945e-5	-5.136e-4
-0.446	-2.934e-5	-5.165e-4
-0.447	-2.922e-5	-5.195e-4
-0.448	-2.911e-5	-5.224e-4
-0.449	-2.900e-5	-5.253e-4
-0.450	-2.889e-5	-5.282e-4
-0.451	-2.878e-5	-5.310e-4
-0.452	-2.868e-5	-5.339e-4
-0.453	-2.857e-5	-5.368e-4
-0.454	-2.847e-5	-5.396e-4
-0.455	-2.837e-5	-5.425e-4
-0.456	-2.827e-5	-5.453e-4
-0.457	-2.817e-5	-5.481e-4
-0.458	-2.807e-5	-5.509e-4
-0.459	-2.798e-5	-5.537e-4
-0.460	-2.789e-5	-5.565e-4
-0.461	-2.780e-5	-5.593e-4
-0.462	-2.771e-5	-5.620e-4
-0.463	-2.762e-5	-5.648e-4
-0.464	-2.753e-5	-5.676e-4
-0.465	-2.744e-5	-5.703e-4
-0.466	-2.736e-5	-5.730e-4
-0.467	-2.728e-5	-5.758e-4
-0.468	-2.720e-5	-5.785e-4
-0.469	-2.712e-5	-5.812e-4
-0.470	-2.704e-5	-5.839e-4
-0.471	-2.696e-5	-5.866e-4
-0.472	-2.688e-5	-5.893e-4
-0.473	-2.681e-5	-5.920e-4
-0.474	-2.673e-5	-5.946e-4
-0.475	-2.666e-5	-5.973e-4
-0.476	-2.659e-5	-6.000e-4
-0.477	-2.652e-5	-6.026e-4
-0.478	-2.645e-5	-6.053e-4
-0.479	-2.638e-5	-6.079e-4
-0.480	-2.632e-5	-6.105e-4
-0.481	-2.625e-5	-6.132e-4
-0.482	-2.619e-5	-6.158e-4
-0.483	-2.612e-5	-6.184e-4
-0.484	-2.606e-5	-6.210e-4
-0.485	-2.600e-5	-6.236e-4
-0.486	-2.594e-5	-6.262e-4
-0.487	-2.588e-5	-6.288e-4
-0.488	-2.582e-5	-6.314e-4
-0.489	-2.577e-5	-6.339e-4
-0.490	-2.571e-5	-6.365e-4
-0.491	-2.565e-5	-6.391e-4
-0.492	-2.560e-5	-6.416e-4
-0.493	-2.555e-5	-6.442e-4
-0.494	-2.549e-5	-6.467e-4
-0.495	-2.544e-5	-6.493e-4
-0.496	-2.539e-5	-6.518e-4
-0.497	-2.534e-5	-6.544e-4
-0.498	-2.529e-5	-6.569e-4
-0.499	-2.524e-5	-6.594e-4
-0.500	-2.520e-5	-6.619e-4
-0.501	-2.515e-5	-6.644e-4
-0.502	-2.510e-5	-6.670e-4
-0.503	-2.506e-5	-6.695e-4
-0.504	-2.501e-5	-6.720e-4
-0.505	-2.497e-5	-6.745e-4
-0.506	-2.493e-5	-6.770e-4
-0.507	-2.489e-5	-6.794e-4
-0.508	-2.485e-5	-6.819e-4
-0.509	-2.481e-5	-6.844e-4
-0.510	-2.477e-5	-6.869e-4
-0.511	-2.473e-5	-6.894e-4
-0.512	-2.469e-5	-6.918e-4
-0.513	-2.465e-5	-6.943e-4
-0.514	-2.461e-5	-6.967e-4
-0.515	-2.458e-5	-6.992e-4
-0.516	-2.454e-5	-7.017e-4
-0.517	-2.451e-5	-7.041e-4
-0.518	-2.447e-5	-7.066e-4
-0.519	-2.444e-5	-7.090e-4
-0.520	-2.440e-5	-7.114e-4
-0.521	-2.437e-5	-7.139e-4
-0.522	-2.434e-5	-7.163e-4
-0.523	-2.431e-5	-7.187e-4
-0.524	-2.427e-5	-7.212e-4
-0.525	-2.424e-5	-7.236e-4
-0.526	-2.421e-5	-7.260e-4
-0.527	-2.418e-5	-7.284e-4
-0.528	-2.415e-5	-7.309e-4
-0.529	-2.413e-5	-7.333e-4
-0.530	-2.410e-5	-7.357e-4
-0.531	-2.407e-5	-7.381e-4
-0.532	-2.404e-5	-7.405e-4
-0.533	-2.402e-5	-7.429e-4
-0.534	-2.399e-5	-7.453e-4
-0.535	-2.396e-5	-7.477e-4
-0.536	-2.394e-5	-7.501e-4
-0.537	-2.391e-5	-7.525e-4
-0.538	-2.389e-5	-7.549e-4
-0.539	-2.387e-5	-7.572e-4
-0.540	-2.384e-5	-7.596e-4
-0.541	-2.382e-5	-7.620e-4
-0.542	-2.380e-5	-7.644e-4
-0.543	-2.377e-5	-7.668e-4
-0.544	-2.375e-5	-7.691e-4
-0.545	-2.373e-5	-7.715e-4
-0.546	-2.371e-5	-7.739e-4
-0.547	-2.369e-5	-7.763e-4
-0.548	-2.367e-5	-7.786e-4
-0.549	-2.365e-5	-7.810e-4
-0.550	-2.363e-5	-7.833e-4
-0.551	-2.361e-5	-7.857e-4
-0.552	-2.359e-5	-7.881e-4
-0.553	-2.357e-5	-7.904e-4
-0.554	-2.355e-5	-7.928e-4
-0.555	-2.353e-5	-7.951e-4
-0.556	-2.351e-5	-7.975e-4
-0.557	-2.350e-5	-7.998e-4
-0.558	-2.348e-5	-8.022e-4
-0.559	-2.346e-5	-8.045e-4
-0.560	-2.345e-5	-8.069e-4
-0.561	-2.343e-5	-8.092e-4
-0.562	-2.341e-5	-8.116e-4
-0.563	-2.340e-5	-8.139e-4
-0.564	-2.338e-5	-8.162e-4
-0.565	-2.337e-5	-8.186e-4
-0.566	-2.335e-5	-8.209e-4
-0.567	-2.334e-5	-8.232e-4
-0.568	-2.332e-5	-8.256e-4
-0.569	-2.331e-5	-8.279e-4
-0.570	-2.330e-5	-8.302e-4
-0.571	-2.328e-5	-8.326e-4
-0.572	-2.327e-5	-8.349e-4
-0.573	-2.326e-5	-8.372e-4
-0.574	-2.324e-5	-8.395e-4
-0.575	-2.323e-5	-8.419e-4
-0.576	-2.322e-5	-8.442e-4
-0.577	-2.321e-5	-8.465e-4
-0.578	-2.319e-5	-8.488e-4
-0.579	-2.318e-5	-8.511e-4
-0.580	-2.317e-5	-8.535e-4
-0.581	-2.316e-5	-8.558e-4
-0.582	-2.315e-5	-8.581e-4
-0.583	-2.314e-5	-8.604e-4
-0.584	-2.313e-5	-8.627e-4
-0.585	-2.311e-5	-8.650e-4
-0.586	-2.310e-5	-8.673e-4
-0.587	-2.309e-5	-8.696e-4
-0.588	-2.308e-5	-8.720e-4
-0.589	-2.307e-5	-8.743e-4
-0.590	-2.306e-5	-8.766e-4
-0.591	-2.305e-5	-8.789e-4
-0.592	-2.305e-5	-8.812e-4
-0.593	-2.304e-5	-8.835e-4
-0.594	-2.303e-5	-8.858e-4
-0.595	-2.302e-5	-8.881e-4
-0.596	-2.301e-5	-8.904e-4
-0.597	-2.300e-5	-8.927e-4
-0.598	-2.299e-5	-8.950e-4
-0.599	-2.298e-5	-8.973e-4
-0.600	-2.296e-5	-2.296e-6
-0.599	-2.293e-5	-4.589e-6
-0.598	-2.290e-5	-6.879e-6
-0.597	-2.288e-5	-9.167e-6
-0.596	-2.286e-5	-1.145e-5
-0.595	-2.285e-5	-1.374e-5
-0.594	-2.283e-5	-1.602e-5
-0.593	-2.282e-5	-1.830e-5
-0.592	-2.280e-5	-2.058e-5
-0.591	-2.279e-5	-2.286e-5
-0.590	-2.278e-5	-2.514e-5
-0.589	-2.276e-5	-2.742e-5
-0.588	-2.275e-5	-2.969e-5
-0.587	-2.274e-5	-3.197e-5
-0.586	-2.273e-5	-3.424e-5
-0.585	-2.272e-5	-3.651e-5
-0.584	-2.270e-5	-3.878e-5
-0.583	-2.269e-5	-4.105e-5
-0.582	-2.268e-5	-4.332e-5
-0.581	-2.267e-5	-4.558e-5
-0.580	-2.266e-5	-4.785e-5
-0.579	-2.265e-5	-5.012e-5
-0.578	-2.264e-5	-5.238e-5
-0.577	-2.263e-5	-5.464e-5
-0.576	-2.262e-5	-5.691e-5
-0.575	-2.261e-5	-5.917e-5
-0.574	-2.261e-5	-6.143e-5
-0.573	-2.260e-5	-6.369e-5
-0.572	-2.259e-5	-6.595e-5
-0.571	-2.258e-5	-6.821e-5
-0.570	-2.257e-5	-7.046e-5
-0.569	-2.256e-5	-7.272e-5
-0.568	-2.255e-5	-7.497e-5
-0.567	-2.255e-5	-7.723e-5
-0.566	-2.254e-5	-7.948e-5
-0.565	-2.253e-5	-8.173e-5
-0.564	-2.252e-5	-8.399e-5
-0.563	-2.251e-5	-8.624e-5
-0.562	-2.251e-5	-8.849e-5
-0.561	-2.250e-5	-9.074e-5
-0.560	-2.249e-5	-9.299e-5
-0.559	-2.248e-5	-9.524e-5
-0.558	-2.248e-5	-9.748e-5
-0.557	-2.247e-5	-9.973e-5
-0.556	-2.246e-5	-1.020e-4
-0.555	-2.245e-5	-1.042e-4
-0.554	-2.245e-5	-1.065e-4
-0.553	-2.244e-5	-1.087e-4
-0.552	-2.243e-5	-1.110e-4
-0.551	-2.243e-5	-1.132e-4
-0.550	-2.242e-5	-1.154e-4
-0.549	-2.241e-5	-1.177e-4
-0.548	-2.241e-5	-1.199e-4
-0.547	-2.240e-5	-1.222e-4
-0.546	-2.239e-5	-1.244e-4
-0.545	-2.239e-5	-1.266e-4
-0.544	-2.238e-5	-1.289e-4
-0.543	-2.238e-5	-1.311e-4
-0.542	-2.237e-5	-1.334e-4
-0.541	-2.236e-5	-1.356e-4
-0.540	-2.236e-5	-1.378e-4
-0.539	-2.235e-5	-1.401e-4
-0.538	-2.234e-5	-1.423e-4
-0.537	-2.234e-5	-1.445e-4
-0.536	-2.233e-5	-1.468e-4
-0.535	-2.233e-5	-1.490e-4
-0.534	-2.232e-5	-1.512e-4
-0.533	-2.231e-5	-1.535e-4
-0.532	-2.231e-5	-1.557e-4
-0.531	-2.230e-5	-1.579e-4
-0.530	-2.229e-5	-1.601e-4
-0.529	-2.229e-5	-1.624e-4
-0.528	-2.228e-5	-1.646e-4
-0.527	-2.228e-5	-1.668e-4
-0.526	-2.227e-5	-1.691e-4
-0.525	-2.226e-5	-1.713e-4
-0.524	-2.226e-5	-1.735e-4
-0.523	-2.225e-5	-1.757e-4
-0.522	-2.225e-5	-1.780e-4
-0.521	-2.224e-5	-1.802e-4
-0.520	-2.223e-5	-1.824e-4
-0.519	-2.223e-5	-1.846e-4
-0.518	-2.222e-5	-1.869e-4
-0.517	-2.221e-5	-1.891e-4
-0.516	-2.221e-5	-1.913e-4
-0.515	-2.220e-5	-1.935e-4
-0.514	-2.219e-5	-1.957e-4
-0.513	-2.219e-5	-1.980e-4
-0.512	-2.218e-5	-2.002e-4
-0.511	-2.217e-5	-2.024e-4
-0.510	-2.217e-5	-2.046e-4
-0.509	-2.216e-5	-2.068e-4
-0.508	-2.215e-5	-2.090e-4
-0.507	-2.214e-5	-2.113e-4
-0.506	-2.214e-5	-2.135e-4
-0.505	-2.213e-5	-2.157e-4
-0.504	-2.212e-5	-2.179e-4
-0.503	-2.211e-5	-2.201e-4
-0.502	-2.211e-5	-2.223e-4
-0.501	-2.210e-5	-2.245e-4
-0.500	-2.209e-5	-2.267e-4
-0.499	-2.208e-5	-2.289e-4
-0.498	-2.207e-5	-2.311e-4
-0.497	-2.206e-5	-2.334e-4
-0.496	-2.205e-5	-2.356e-4
-0.495	-2.205e-5	-2.378e-4
-0.494	-2.204e-5	-2.400e-4
-0.493	-2.203e-5	-2.422e-4
-0.492	-2.202e-5	-2.444e-4
-0.491	-2.201e-5	-2.466e-4
-0.490	-2.200e-5	-2.488e-4
-0.489	-2.198e-5	-2.510e-4
-0.488	-2.197e-5	-2.532e-4
-0.487	-2.196e-5	-2.554e-4
-0.486	-2.195e-5	-2.576e-4
-0.485	-2.194e-5	-2.598e-4
-0.484	-2.193e-5	-2.619e-4
-0.483	-2.191e-5	-2.641e-4
-0.482	-2.190e-5	-2.663e-4
-0.481	-2.189e-5	-2.685e-4
-0.480	-2.187e-5	-2.707e-4
-0.479	-2.186e-5	-2.729e-4
-0.478	-2.184e-5	-2.751e-4
-0.477	-2.183e-5	-2.773e-4
-0.476	-2.181e-5	-2.794e-4
-0.475	-2.180e-5	-2.816e-4
-0.474	-2.178e-5	-2.838e-4
-0.473	-2.176e-5	-2.860e-4
-0.472	-2.174e-5	-2.881e-4
-0.471	-2.173e-5	-2.903e-4
-0.470	-2.171e-5	-2.925e-4
-0.469	-2.169e-5	-2.947e-4
-0.468	-2.167e-5	-2.968e-4
-0.467	-2.165e-5	-2.990e-4
-0.466	-2.163e-5	-3.011e-4
-0.465	-2.160e-5	-3.033e-4
-0.464	-2.158e-5	-3.055e-4
-0.463	-2.156e-5	-3.076e-4
-0.462	-2.153e-5	-3.098e-4
-0.461	-2.151e-5	-3.119e-4
-0.460	-2.148e-5	-3.141e-4
-0.459	-2.145e-5	-3.162e-4
-0.458	-2.143e-5	-3.184e-4
-0.457	-2.140e-5	-3.205e-4
-0.456	-2.137e-5	-3.226e-4
-0.455	-2.133e-5	-3.248e-4
-0.454	-2.130e-5	-3.269e-4
-0.453	-2.127e-5	-3.290e-4
-0.452	-2.123e-5	-3.312e-4
-0.451	-2.120e-5	-3.333e-4
-0.450	-2.116e-5	-3.354e-4
-0.449	-2.112e-5	-3.375e-4
-0.448	-2.108e-5	-3.396e-4
-0.447	-2.104e-5	-3.417e-4
-0.446	-2.100e-5	-3.438e-4
-0.445	-2.095e-5	-3.459e-4
-0.444	-2.091e-5	-3.480e-4
-0.443	-2.086e-5	-3.501e-4
-0.442	-2.081e-5	-3.522e-4
-0.441	-2.076e-5	-3.542e-4
-0.440	-2.071e-5	-3.563e-4
-0.439	-2.065e-5	-3.584e-4
-0.438	-2.060e-5	-3.604e-4
-0.437	-2.054e-5	-3.625e-4
-0.436	-2.048e-5	-3.645e-4
-0.435	-2.041e-5	-3.666e-4
-0.434	-2.035e-5	-3.686e-4
-0.433	-2.028e-5	-3.706e-4
-0.432	-2.021e-5	-3.727e-4
-0.431	-2.014e-5	-3.747e-4
-0.430	-2.006e-5	-3.767e-4
-0.429	-1.999e-5	-3.787e-4
-0.428	-1.991e-5	-3.807e-4
-0.427	-1.982e-5	-3.827e-4
-0.426	-1.974e-5	-3.846e-4
-0.425	-1.965e-5	-3.866e-4
-0.424	-1.956e-5	-3.886e-4
-0.423	-1.946e-5	-3.905e-4
-0.422	-1.936e-5	-3.924e-4
-0.421	-1.926e-5	-3.944e-4
-0.420	-1.915e-5	-3.963e-4
-0.419	-1.904e-5	-3.982e-4
-0.418	-1.893e-5	-4.001e-4
-0.417	-1.881e-5	-4.020e-4
-0.416	-1.869e-5	-4.038e-4
-0.415	-1.857e-5	-4.057e-4
-0.414	-1.844e-5	-4.075e-4
-0.413	-1.830e-5	-4.094e-4
-0.412	-1.816e-5	-4.112e-4
-0.411	-1.802e-5	-4.130e-4
-0.410	-1.787e-5	-4.148e-4
-0.409	-1.772e-5	-4.165e-4
-0.408	-1.756e-5	-4.183e-4
-0.407	-1.739e-5	-4.200e-4
-0.406	-1.722e-5	-4.217e-4
-0.405	-1.705e-5	-4.235e-4
-0.404	-1.687e-5	-4.251e-4
-0.403	-1.668e-5	-4.268e-4
-0.402	-1.649e-5	-4.285e-4
-0.401	-1.629e-5	-4.301e-4
-0.400	-1.608e-5	-4.317e-4
-0.399	-1.587e-5	-4.333e-4
-0.398	-1.565e-5	-4.348e-4
-0.397	-1.543e-5	-4.364e-4
-0.396	-1.520e-5	-4.379e-4
-0.395	-1.496e-5	-4.394e-4
-0.394	-1.471e-5	-4.409e-4
-0.393	-1.446e-5	-4.423e-4
-0.392	-1.420e-5	-4.437e-4
-0.391	-1.393e-5	-4.451e-4
-0.390	-1.365e-5	-4.465e-4
-0.389	-1.337e-5	-4.478e-4
-0.388	-1.308e-5	-4.491e-4
-0.387	-1.278e-5	-4.504e-4
-0.386	-1.247e-5	-4.517e-4
-0.385	-1.216e-5	-4.529e-4
-0.384	-1.184e-5	-4.541e-4
-0.383	-1.151e-5	-4.552e-4
-0.382	-1.117e-5	-4.563e-4
-0.381	-1.083e-5	-4.574e-4
-0.380	-1.048e-5	-4.585e-4
-0.379	-1.012e-5	-4.595e-4
-0.378	-9.750e-6	-4.605e-4
-0.377	-9.375e-6	-4.614e-4
-0.376	-8.993e-6	-4.623e-4
-0.375	-8.605e-6	-4.632e-4
-0.374	-8.211e-6	-4.640e-4
-0.373	-7.810e-6	-4.648e-4
-0.372	-7.403e-6	-4.655e-4
-0.371	-6.991e-6	-4.662e-4
-0.370	-6.572e-6	-4.669e-4
-0.369	-6.147e-6	-4.675e-4
-0.368	-5.719e-6	-4.680e-4
-0.367	-5.285e-6	-4.686e-4
-0.366	-4.846e-6	-4.691e-4
-0.365	-4.403e-6	-4.695e-4
-0.364	-3.958e-6	-4.699e-4
-0.363	-3.511e-6	-4.702e-4
-0.362	-3.063e-6	-4.705e-4
-0.361	-2.615e-6	-4.708e-4
-0.360	-2.165e-6	-4.710e-4
-0.359	-1.713e-6	-4.712e-4
-0.358	-1.260e-6	-4.713e-4
-0.357	-8.072e-7	-4.714e-4
-0.356	-3.572e-7	-4.714e-4
-0.355	9.004e-8	-4.714e-4
-0.354	5.366e-7	-4.714e-4
-0.353	9.810e-7	-4.713e-4
-0.352	1.423e-6	-4.711e-4
-0.351	1.860e-6	-4.709e-4
-0.350	2.291e-6	-4.707e-4
-0.349	2.716e-6	-4.704e-4
-0.348	3.136e-6	-4.701e-4
-0.347	3.549e-6	-4.698e-4
-0.346	3.956e-6	-4.694e-4
-0.345	4.356e-6	-4.689e-4
-0.344	4.750e-6	-4.685e-4
-0.343	5.136e-6	-4.680e-4
-0.342	5.512e-6	-4.674e-4
-0.341	5.879e-6	-4.668e-4
-0.340	6.237e-6	-4.662e-4
-0.339	6.584e-6	-4.655e-4
-0.338	6.923e-6	-4.648e-4
-0.337	7.253e-6	-4.641e-4
-0.336	7.573e-6	-4.634e-4
-0.335	7.883e-6	-4.626e-4
-0.334	8.184e-6	-4.618e-4
-0.333	8.474e-6	-4.609e-4
-0.332	8.755e-6	-4.600e-4
-0.331	9.023e-6	-4.591e-4
-0.330	9.281e-6	-4.582e-4
-0.329	9.527e-6	-4.572e-4
-0.328	9.765e-6	-4.563e-4
-0.327	9.993e-6	-4.553e-4
-0.326	1.021e-5	-4.543e-4
-0.325	1.042e-5	-4.532e-4
-0.324	1.061e-5	-4.522e-4
-0.323	1.079e-5	-4.511e-4
-0.322	1.096e-5	-4.500e-4
-0.321	1.112e-5	-4.489e-4
-0.320	1.128e-5	-4.477e-4
-0.319	1.142e-5	-4.466e-4
-0.318	1.155e-5	-4.454e-4
-0.317	1.168e-5	-4.443e-4
-0.316	1.179e-5	-4.431e-4
-0.315	1.190e-5	-4.419e-4
-0.314	1.200e-5	-4.407e-4
-0.313	1.209e-5	-4.395e-4
-0.312	1.217e-5	-4.383e-4
-0.311	1.224e-5	-4.371e-4
-0.310	1.230e-5	-4.358e-4
-0.309	1.236e-5	-4.346e-4
-0.308	1.241e-5	-4.333e-4
-0.307	1.245e-5	-4.321e-4
-0.306	1.249e-5	-4.309e-4
-0.305	1.252e-5	-4.296e-4
-0.304	1.254e-5	-4.283e-4
-0.303	1.256e-5	-4.271e-4
-0.302	1.257e-5	-4.258e-4
-0.301	1.257e-5	-4.246e-4
-0.300	1.257e-5	-4.233e-4
-0.299	1.256e-5	-4.221e-4
-0.298	1.255e-5	-4.208e-4
-0.297	1.253e-5	-4.196e-4
-0.296	1.251e-5	-4.183e-4
-0.295	1.249e-5	-4.171e-4
-0.294	1.246e-5	-4.158e-4
-0.293	1.242e-5	-4.146e-4
-0.292	1.238e-5	-4.133e-4
-0.291	1.234e-5	-4.121e-4
-0.290	1.230e-5	-4.109e-4
-0.289	1.225e-5	-4.096e-4
-0.288	1.220e-5	-4.084e-4
-0.287	1.215e-5	-4.072e-4
-0.286	1.209e-5	-4.060e-4
-0.285	1.203e-5	-4.048e-4
-0.284	1.197e-5	-4.036e-4
-0.283	1.191e-5	-4.024e-4
-0.282	1.185e-5	-4.012e-4
-0.281	1.178e-5	-4.000e-4
-0.280	1.171e-5	-3.989e-4
-0.279	1.164e-5	-3.977e-4
-0.278	1.157e-5	-3.966e-4
-0.277	1.149e-5	-3.954e-4
-0.276	1.142e-5	-3.943e-4
-0.275	1.135e-5	-3.931e-4
-0.274	1.127e-5	-3.920e-4
-0.273	1.119e-5	-3.909e-4
-0.272	1.111e-5	-3.898e-4
-0.271	1.103e-5	-3.887e-4
-0.270	1.095e-5	-3.876e-4
-0.269	1.087e-5	-3.865e-4
-0.268	1.078e-5	-3.854e-4
-0.267	1.070e-5	-3.843e-4
-0.266	1.061e-5	-3.833e-4
-0.265	1.053e-5	-3.822e-4
-0.264	1.044e-5	-3.812e-4
-0.263	1.036e-5	-3.801e-4
-0.262	1.027e-5	-3.791e-4
-0.261	1.018e-5	-3.781e-4
-0.260	1.010e-5	-3.771e-4
-0.259	1.001e-5	-3.761e-4
-0.258	9.918e-6	-3.751e-4
-0.257	9.828e-6	-3.741e-4
-0.256	9.739e-6	-3.731e-4
-0.255	9.649e-6	-3.722e-4
-0.254	9.559e-6	-3.712e-4
-0.253	9.467e-6	-3.703e-4
-0.252	9.375e-6	-3.693e-4
-0.251	9.283e-6	-3.684e-4
-0.250	9.191e-6	-3.675e-4
-0.249	9.099e-6	-3.666e-4
-0.248	9.006e-6	-3.657e-4
-0.247	8.913e-6	-3.648e-4
-0.246	8.820e-6	-3.639e-4
-0.245	8.726e-6	-3.630e-4
-0.244	8.632e-6	-3.622e-4
-0.243	8.538e-6	-3.613e-4
-0.242	8.444e-6	-3.605e-4
-0.241	8.350e-6	-3.596e-4
-0.240	8.257e-6	-3.588e-4
-0.239	8.163e-6	-3.580e-4
-0.238	8.069e-6	-3.572e-4
-0.237	7.975e-6	-3.564e-4
-0.236	7.881e-6	-3.556e-4
-0.235	7.786e-6	-3.548e-4
-0.234	7.692e-6	-3.540e-4
-0.233	7.598e-6	-3.533e-4
-0.232	7.504e-6	-3.525e-4
-0.231	7.410e-6	-3.518e-4
-0.230	7.317e-6	-3.511e-4
-0.229	7.224e-6	-3.503e-4
-0.228	7.131e-6	-3.496e-4
-0.227	7.038e-6	-3.489e-4
-0.226	6.945e-6	-3.482e-4
-0.225	6.853e-6	-3.475e-4
-0.224	6.762e-6	-3.469e-4
-0.223	6.672e-6	-3.462e-4
-0.222	6.581e-6	-3.455e-4
-0.221	6.492e-6	-3.449e-4
-0.220	6.402e-6	-3.443e-4
-0.219	6.313e-6	-3.436e-4
-0.218	6.224e-6	-3.430e-4
-0.217	6.136e-6	-3.424e-4
-0.216	6.049e-6	-3.418e-4
-0.215	5.963e-6	-3.412e-4
-0.214	5.877e-6	-3.406e-4
-0.213	5.792e-6	-3.400e-4
-0.212	5.708e-6	-3.394e-4
-0.211	5.625e-6	-3.389e-4
-0.210	5.542e-6	-3.383e-4
-0.209	5.460e-6	-3.378e-4
-0.208	5.378e-6	-3.372e-4
-0.207	5.298e-6	-3.367e-4
-0.206	5.219e-6	-3.362e-4
-0.205	5.140e-6	-3.357e-4
-0.204	5.063e-6	-3.352e-4
-0.203	4.987e-6	-3.347e-4
-0.202	4.911e-6	-3.342e-4
-0.201	4.836e-6	-3.337e-4
-0.200	4.762e-6	-3.332e-4
-0.199	4.689e-6	-3.328e-4
-0.198	4.616e-6	-3.323e-4
-0.197	4.545e-6	-3.318e-4
-0.196	4.475e-6	-3.314e-4
-0.195	4.405e-6	-3.310e-4
-0.194	4.337e-6	-3.305e-4
-0.193	4.269e-6	-3.301e-4
-0.192	4.202e-6	-3.297e-4
-0.191	4.137e-6	-3.293e-4
-0.190	4.072e-6	-3.289e-4
-0.189	4.008e-6	-3.285e-4
-0.188	3.945e-6	-3.281e-4
-0.187	3.883e-6	-3.277e-4
-0.186	3.821e-6	-3.273e-4
-0.185	3.761e-6	-3.269e-4
-0.184	3.702e-6	-3.265e-4
-0.183	3.643e-6	-3.262e-4
-0.182	3.586e-6	-3.258e-4
-0.181	3.529e-6	-3.255e-4
-0.180	3.474e-6	-3.251e-4
-0.179	3.419e-6	-3.248e-4
-0.178	3.365e-6	-3.244e-4
-0.177	3.312e-6	-3.241e-4
-0.176	3.260e-6	-3.238e-4
-0.175	3.208e-6	-3.235e-4
-0.174	3.157e-6	-3.231e-4
-0.173	3.107e-6	-3.228e-4
-0.172	3.058e-6	-3.225e-4
-0.171	3.010e-6	-3.222e-4
-0.170	2.962e-6	-3.219e-4
-0.169	2.916e-6	-3.216e-4
-0.168	2.870e-6	-3.214e-4
-0.167	2.825e-6	-3.211e-4
-0.166	2.781e-6	-3.208e-4
-0.165	2.737e-6	-3.205e-4
-0.164	2.694e-6	-3.202e-4
-0.163	2.652e-6	-3.200e-4
-0.162	2.611e-6	-3.197e-4
-0.161	2.571e-6	-3.195e-4
-0.160	2.531e-6	-3.192e-4
-0.159	2.492e-6	-3.190e-4
-0.158	2.454e-6	-3.187e-4
-0.157	2.416e-6	-3.185e-4
-0.156	2.379e-6	-3.182e-4
-0.155	2.342e-6	-3.180e-4
-0.154	2.307e-6	-3.178e-4
-0.153	2.272e-6	-3.175e-4
-0.152	2.237e-6	-3.173e-4
-0.151	2.204e-6	-3.171e-4
-0.150	2.171e-6	-3.169e-4
-0.149	2.139e-6	-3.167e-4
-0.148	2.107e-6	-3.165e-4
-0.147	2.077e-6	-3.163e-4
-0.146	2.046e-6	-3.160e-4
-0.145	2.017e-6	-3.158e-4
-0.144	1.988e-6	-3.156e-4
-0.143	1.960e-6	-3.155e-4
-0.142	1.933e-6	-3.153e-4
-0.141	1.907e-6	-3.151e-4
-0.140	1.881e-6	-3.149e-4
-0.139	1.855e-6	-3.147e-4
-0.138	1.830e-6	-3.145e-4
-0.137	1.806e-6	-3.143e-4
-0.136	1.782e-6	-3.142e-4
-0.135	1.759e-6	-3.140e-4
-0.134	1.737e-6	-3.138e-4
-0.133	1.715e-6	-3.136e-4
-0.132	1.694e-6	-3.135e-4
-0.131	1.674e-6	-3.133e-4
-0.130	1.654e-6	-3.131e-4
-0.129	1.635e-6	-3.130e-4
-0.128	1.616e-6	-3.128e-4
-0.127	1.598e-6	-3.126e-4
-0.126	1.581e-6	-3.125e-4
-0.125	1.564e-6	-3.123e-4
-0.124	1.548e-6	-3.122e-4
-0.123	1.532e-6	-3.120e-4
-0.122	1.517e-6	-3.119e-4
-0.121	1.503e-6	-3.117e-4
-0.120	1.489e-6	-3.116e-4
-0.119	1.475e-6	-3.114e-4
-0.118	1.462e-6	-3.113e-4
-0.117	1.450e-6	-3.111e-4
-0.116	1.438e-6	-3.110e-4
-0.115	1.426e-6	-3.108e-4
-0.114	1.415e-6	-3.107e-4
-0.113	1.404e-6	-3.106e-4
-0.112	1.394e-6	-3.104e-4
-0.111	1.383e-6	-3.103e-4
-0.110	1.373e-6	-3.101e-4
-0.109	1.363e-6	-3.100e-4
-0.108	1.353e-6	-3.099e-4
-0.107	1.343e-6	-3.097e-4
-0.106	1.334e-6	-3.096e-4
-0.105	1.324e-6	-3.095e-4
-0.104	1.314e-6	-3.093e-4
-0.103	1.304e-6	-3.092e-4
-0.102	1.294e-6	-3.091e-4
-0.101	1.284e-6	-3.090e-4
-0.100	1.273e-6	-3.088e-4
-0.099	1.263e-6	-3.087e-4
-0.098	1.252e-6	-3.086e-4
-0.097	1.241e-6	-3.085e-4
-0.096	1.230e-6	-3.083e-4
-0.095	1.219e-6	-3.082e-4
-0.094	1.207e-6	-3.081e-4
-0.093	1.196e-6	-3.080e-4
-0.092	1.184e-6	-3.079e-4
-0.091	1.172e-6	-3.077e-4
-0.090	1.159e-6	-3.076e-4
-0.089	1.147e-6	-3.075e-4
-0.088	1.135e-6	-3.074e-4
-0.087	1.122e-6	-3.073e-4
-0.086	1.109e-6	-3.072e-4
-0.085	1.097e-6	-3.071e-4
-0.084	1.084e-6	-3.069e-4
-0.083	1.071e-6	-3.068e-4
-0.082	1.058e-6	-3.067e-4
-0.081	1.046e-6	-3.066e-4
-0.080	1.033e-6	-3.065e-4
-0.079	1.020e-6	-3.064e-4
-0.078	1.008e-6	-3.063e-4
-0.077	9.951e-7	-3.062e-4
-0.076	9.828e-7	-3.061e-4
-0.075	9.706e-7	-3.060e-4
-0.074	9.586e-7	-3.059e-4
-0.073	9.467e-7	-3.058e-4
-0.072	9.350e-7	-3.057e-4
-0.071	9.233e-7	-3.057e-4
-0.070	9.118e-7	-3.056e-4
-0.069	9.004e-7	-3.055e-4
-0.068	8.892e-7	-3.054e-4
-0.067	8.782e-7	-3.053e-4
-0.066	8.675e-7	-3.052e-4
-0.065	8.569e-7	-3.051e-4
-0.064	8.464e-7	-3.050e-4
-0.063	8.361e-7	-3.050e-4
-0.062	8.260e-7	-3.049e-4
-0.061	8.161e-7	-3.048e-4
-0.060	8.064e-7	-3.047e-4
-0.059	7.969e-7	-3.046e-4
-0.058	7.875e-7	-3.046e-4
-0.057	7.784e-7	-3.045e-4
-0.056	7.694e-7	-3.044e-4
-0.055	7.604e-7	-3.043e-4
-0.054	7.516e-7	-3.042e-4
-0.053	7.430e-7	-3.042e-4
-0.052	7.347e-7	-3.041e-4
-0.051	7.266e-7	-3.040e-4
-0.050	7.186e-7	-3.040e-4
-0.049	7.108e-7	-3.039e-4
-0.048	7.032e-7	-3.038e-4
-0.047	6.956e-7	-3.037e-4
-0.046	6.883e-7	-3.037e-4
-0.045	6.810e-7	-3.036e-4
-0.044	6.740e-7	-3.035e-4
-0.043	6.671e-7	-3.035e-4
-0.042	6.603e-7	-3.034e-4
-0.041	6.537e-7	-3.033e-4
-0.040	6.472e-7	-3.033e-4
-0.039	6.408e-7	-3.032e-4
-0.038	6.346e-7	-3.031e-4
-0.037	6.285e-7	-3.031e-4
-0.036	6.225e-7	-3.030e-4
-0.035	6.166e-7	-3.030e-4
-0.034	6.109e-7	-3.029e-4
-0.033	6.053e-7	-3.028e-4
-0.032	5.998e-7	-3.028e-4
-0.031	5.944e-7	-3.027e-4
-0.030	5.891e-7	-3.027e-4
-0.029	5.839e-7	-3.026e-4
-0.028	5.788e-7	-3.025e-4
-0.027	5.739e-7	-3.025e-4
-0.026	5.691e-7	-3.024e-4
-0.025	5.644e-7	-3.024e-4
-0.024	5.598e-7	-3.023e-4
-0.023	5.553e-7	-3.023e-4
-0.022	5.509e-7	-3.022e-4
-0.021	5.465e-7	-3.022e-4
-0.020	5.423e-7	-3.021e-4
-0.019	5.380e-7	-3.020e-4
-0.018	5.339e-7	-3.020e-4
-0.017	5.298e-7	-3.019e-4
-0.016	5.258e-7	-3.019e-4
-0.015	5.220e-7	-3.018e-4
-0.014	5.182e-7	-3.018e-4
-0.013	5.145e-7	-3.017e-4
-0.012	5.108e-7	-3.017e-4
-0.011	5.071e-7	-3.016e-4
-0.010	5.036e-7	-3.016e-4
-0.009	5.002e-7	-3.015e-4
-0.008	4.969e-7	-3.015e-4
-0.007	4.937e-7	-3.014e-4
-0.006	4.905e-7	-3.014e-4
-0.005	4.873e-7	-3.013e-4
-0.004	4.842e-7	-3.013e-4
-0.003	4.811e-7	-3.012e-4
-0.002	4.782e-7	-3.012e-4
-0.001	4.753e-7	-3.011e-4
-0.000	4.358e-7	4.358e-8
-0.001	4.002e-7	8.360e-8
-0.002	3.707e-7	1.207e-7
-0.003	3.473e-7	1.554e-7
-0.004	3.322e-7	1.886e-7
-0.005	3.212e-7	2.207e-7
-0.006	3.117e-7	2.519e-7
-0.007	3.019e-7	2.821e-7
-0.008	2.927e-7	3.114e-7
-0.009	2.842e-7	3.398e-7
-0.010	2.760e-7	3.674e-7
-0.011	2.683e-7	3.942e-7
-0.012	2.609e-7	4.203e-7
-0.013	2.537e-7	4.457e-7
-0.014	2.468e-7	4.704e-7
-0.015	2.402e-7	4.944e-7
-0.016	2.338e-7	5.178e-7
-0.017	2.277e-7	5.405e-7
-0.018	2.217e-7	5.627e-7
-0.019	2.159e-7	5.843e-7
-0.020	2.103e-7	6.053e-7
-0.021	2.049e-7	6.258e-7
-0.022	1.995e-7	6.458e-7
-0.023	1.943e-7	6.652e-7
-0.024	1.892e-7	6.841e-7
-0.025	1.842e-7	7.025e-7
-0.026	1.793e-7	7.205e-7
-0.027	1.746e-7	7.379e-7
-0.028	1.701e-7	7.549e-7
-0.029	1.656e-7	7.715e-7
-0.030	1.612e-7	7.876e-7
-0.031	1.569e-7	8.033e-7
-0.032	1.526e-7	8.185e-7
-0.033	1.484e-7	8.334e-7
-0.034	1.442e-7	8.478e-7
-0.035	1.400e-7	8.618e-7
-0.036	1.360e-7	8.754e-7
-0.037	1.320e-7	8.886e-7
-0.038	1.282e-7	9.014e-7
-0.039	1.243e-7	9.139e-7
-0.040	1.204e-7	9.259e-7
-0.041	1.166e-7	9.376e-7
-0.042	1.128e-7	9.488e-7
-0.043	1.091e-7	9.597e-7
-0.044	1.055e-7	9.703e-7
-0.045	1.020e-7	9.805e-7
-0.046	9.847e-8	9.903e-7
-0.047	9.496e-8	9.998e-7
-0.048	9.147e-8	1.009e-6
-0.049	8.797e-8	1.018e-6
-0.050	8.451e-8	1.026e-6
-0.051	8.110e-8	1.034e-6
-0.052	7.773e-8	1.042e-6
-0.053	7.441e-8	1.050e-6
-0.054	7.112e-8	1.057e-6
-0.055	6.781e-8	1.063e-6
-0.056	6.445e-8	1.070e-6
-0.057	6.107e-8	1.076e-6
-0.058	5.772e-8	1.082e-6
-0.059	5.439e-8	1.087e-6
-0.060	5.108e-8	1.092e-6
-0.061	4.776e-8	1.097e-6
-0.062	4.440e-8	1.102e-6
-0.063	4.103e-8	1.106e-6
-0.064	3.767e-8	1.109e-6
-0.065	3.427e-8	1.113e-6
-0.066	3.084e-8	1.116e-6
-0.067	2.732e-8	1.119e-6
-0.068	2.374e-8	1.121e-6
-0.069	2.011e-8	1.123e-6
-0.070	1.647e-8	1.125e-6
-0.071	1.285e-8	1.126e-6
-0.072	9.211e-9	1.127e-6
-0.073	5.511e-9	1.127e-6
-0.074	1.729e-9	1.128e-6
-0.075	-2.190e-9	1.127e-6
-0.076	-6.200e-9	1.127e-6
-0.077	-1.025e-8	1.126e-6
-0.078	-1.435e-8	1.124e-6
-0.079	-1.850e-8	1.122e-6
-0.080	-2.277e-8	1.120e-6
-0.081	-2.723e-8	1.117e-6
-0.082	-3.182e-8	1.114e-6
-0.083	-3.649e-8	1.111e-6
-0.084	-4.117e-8	1.107e-6
-0.085	-4.587e-8	1.102e-6
-0.086	-5.069e-8	1.097e-6
-0.087	-5.561e-8	1.091e-6
-0.088	-6.064e-8	1.085e-6
-0.089	-6.570e-8	1.079e-6
-0.090	-7.077e-8	1.072e-6
-0.091	-7.589e-8	1.064e-6
-0.092	-8.107e-8	1.056e-6
-0.093	-8.631e-8	1.047e-6
-0.094	-9.162e-8	1.038e-6
-0.095	-9.697e-8	1.028e-6
-0.096	-1.023e-7	1.018e-6
-0.097	-1.077e-7	1.007e-6
-0.098	-1.130e-7	9.961e-7
-0.099	-1.183e-7	9.843e-7
-0.100	-1.235e-7	9.719e-7
-0.101	-1.288e-7	9.590e-7
-0.102	-1.340e-7	9.456e-7
-0.103	-1.391e-7	9.317e-7
-0.104	-1.440e-7	9.173e-7
-0.105	-1.487e-7	9.024e-7
-0.106	-1.533e-7	8.871e-7
-0.107	-1.577e-7	8.713e-7
-0.108	-1.621e-7	8.551e-7
-0.109	-1.663e-7	8.385e-7
-0.110	-1.703e-7	8.215e-7
-0.111	-1.742e-7	8.041e-7
-0.112	-1.779e-7	7.863e-7
-0.113	-1.814e-7	7.681e-7
-0.114	-1.847e-7	7.496e-7
-0.115	-1.878e-7	7.309e-7
-0.116	-1.907e-7	7.118e-7
-0.117	-1.935e-7	6.924e-7
-0.118	-1.961e-7	6.728e-7
-0.119	-1.987e-7	6.530e-7
-0.120	-2.011e-7	6.329e-7
-0.121	-2.034e-7	6.125e-7
-0.122	-2.055e-7	5.920e-7
-0.123	-2.076e-7	5.712e-7
-0.124	-2.095e-7	5.503e-7
-0.125	-2.113e-7	5.291e-7
-0.126	-2.130e-7	5.078e-7
-0.127	-2.147e-7	4.864e-7
-0.128	-2.162e-7	4.647e-7
-0.129	-2.178e-7	4.430e-7
-0.130	-2.193e-7	4.210e-7
-0.131	-2.208e-7	3.990e-7
-0.132	-2.223e-7	3.767e-7
-0.133	-2.238e-7	3.543e-7
-0.134	-2.254e-7	3.318e-7
-0.135	-2.269e-7	3.091e-7
-0.136	-2.285e-7	2.863e-7
-0.137	-2.301e-7	2.633e-7
-0.138	-2.318e-7	2.401e-7
-0.139	-2.335e-7	2.167e-7
-0.140	-2.353e-7	1.932e-7
-0.141	-2.371e-7	1.695e-7
-0.142	-2.391e-7	1.456e-7
-0.143	-2.410e-7	1.215e-7
-0.144	-2.431e-7	9.715e-8
-0.145	-2.453e-7	7.262e-8
-0.146	-2.477e-7	4.785e-8
-0.147	-2.501e-7	2.284e-8
-0.148	-2.527e-7	-2.427e-9
-0.149	-2.554e-7	-2.797e-8
-0.150	-2.582e-7	-5.379e-8
-0.151	-2.611e-7	-7.990e-8
-0.152	-2.641e-7	-1.063e-7
-0.153	-2.672e-7	-1.330e-7
-0.154	-2.704e-7	-1.601e-7
-0.155	-2.738e-7	-1.874e-7
-0.156	-2.773e-7	-2.152e-7
-0.157	-2.810e-7	-2.433e-7
-0.158	-2.850e-7	-2.718e-7
-0.159	-2.890e-7	-3.007e-7
-0.160	-2.933e-7	-3.300e-7
-0.161	-2.977e-7	-3.598e-7
-0.162	-3.023e-7	-3.900e-7
-0.163	-3.070e-7	-4.207e-7
-0.164	-3.120e-7	-4.519e-7
-0.165	-3.171e-7	-4.836e-7
-0.166	-3.224e-7	-5.159e-7
-0.167	-3.280e-7	-5.486e-7
-0.168	-3.337e-7	-5.820e-7
-0.169	-3.397e-7	-6.160e-7
-0.170	-3.460e-7	-6.506e-7
-0.171	-3.525e-7	-6.858e-7
-0.172	-3.594e-7	-7.218e-7
-0.173	-3.665e-7	-7.584e-7
-0.174	-3.739e-7	-7.958e-7
-0.175	-3.815e-7	-8.340e-7
-0.176	-3.893e-7	-8.729e-7
-0.177	-3.975e-7	-9.126e-7
-0.178	-4.060e-7	-9.532e-7
-0.179	-4.149e-7	-9.947e-7
-0.180	-4.242e-7	-1.037e-6
-0.181	-4.337e-7	-1.081e-6
-0.182	-4.437e-7	-1.125e-6
-0.183	-4.540e-7	-1.170e-6
-0.184	-4.646e-7	-1.217e-6
-0.185	-4.757e-7	-1.264e-6
-0.186	-4.873e-7	-1.313e-6
-0.187	-4.993e-7	-1.363e-6
-0.188	-5.117e-7	-1.414e-6
-0.189	-5.246e-7	-1.467e-6
-0.190	-5.380e-7	-1.520e-6
-0.191	-5.519e-7	-1.576e-6
-0.192	-5.664e-7	-1.632e-6
-0.193	-5.813e-7	-1.690e-6
-0.194	-5.967e-7	-1.750e-6
-0.195	-6.126e-7	-1.811e-6
-0.196	-6.291e-7	-1.874e-6
-0.197	-6.464e-7	-1.939e-6
-0.198	-6.644e-7	-2.005e-6
-0.199	-6.831e-7	-2.074e-6
-0.200	-7.024e-7	-2.144e-6
-0.201	-7.224e-7	-2.216e-6
-0.202	-7.431e-7	-2.290e-6
-0.203	-7.646e-7	-2.367e-6
-0.204	-7.868e-7	-2.446e-6
-0.205	-8.100e-7	-2.527e-6
-0.206	-8.340e-7	-2.610e-6
-0.207	-8.589e-7	-2.696e-6
-0.208	-8.846e-7	-2.784e-6
-0.209	-9.112e-7	-2.875e-6
-0.210	-9.386e-7	-2.969e-6
-0.211	-9.669e-7	-3.066e-6
-0.212	-9.961e-7	-3.166e-6
-0.213	-1.026e-6	-3.268e-6
-0.214	-1.058e-6	-3.374e-6
-0.215	-1.090e-6	-3.483e-6
-0.216	-1.123e-6	-3.595e-6
-0.217	-1.158e-6	-3.711e-6
-0.218	-1.193e-6	-3.830e-6
-0.219	-1.230e-6	-3.953e-6
-0.220	-1.267e-6	-4.080e-6
-0.221	-1.307e-6	-4.211e-6
-0.222	-1.347e-6	-4.345e-6
-0.223	-1.389e-6	-4.484e-6
-0.224	-1.432e-6	-4.628e-6
-0.225	-1.477e-6	-4.775e-6
-0.226	-1.523e-6	-4.927e-6
-0.227	-1.570e-6	-5.084e-6
-0.228	-1.619e-6	-5.246e-6
-0.229	-1.670e-6	-5.413e-6
-0.230	-1.722e-6	-5.586e-6
-0.231	-1.775e-6	-5.763e-6
-0.232	-1.831e-6	-5.946e-6
-0.233	-1.887e-6	-6.135e-6
-0.234	-1.946e-6	-6.329e-6
-0.235	-2.006e-6	-6.530e-6
-0.236	-2.068e-6	-6.737e-6
-0.237	-2.132e-6	-6.950e-6
-0.238	-2.197e-6	-7.170e-6
-0.239	-2.265e-6	-7.396e-6
-0.240	-2.335e-6	-7.630e-6
-0.241	-2.407e-6	-7.870e-6
-0.242	-2.481e-6	-8.118e-6
-0.243	-2.557e-6	-8.374e-6
-0.244	-2.636e-6	-8.638e-6
-0.245	-2.716e-6	-8.909e-6
-0.246	-2.799e-6	-9.189e-6
-0.247	-2.884e-6	-9.478e-6
-0.248	-2.973e-6	-9.775e-6
-0.249	-3.064e-6	-1.008e-5
-0.250	-3.158e-6	-1.040e-5
-0.251	-3.255e-6	-1.072e-5
-0.252	-3.354e-6	-1.106e-5
-0.253	-3.457e-6	-1.140e-5
-0.254	-3.562e-6	-1.176e-5
-0.255	-3.671e-6	-1.213e-5
-0.256	-3.784e-6	-1.251e-5
-0.257	-3.899e-6	-1.290e-5
-0.258	-4.019e-6	-1.330e-5
-0.259	-4.141e-6	-1.371e-5
-0.260	-4.267e-6	-1.414e-5
-0.261	-4.398e-6	-1.458e-5
-0.262	-4.532e-6	-1.503e-5
-0.263	-4.671e-6	-1.550e-5
-0.264	-4.815e-6	-1.598e-5
-0.265	-4.963e-6	-1.648e-5
-0.266	-5.115e-6	-1.699e-5
-0.267	-5.272e-6	-1.751e-5
-0.268	-5.434e-6	-1.806e-5
-0.269	-5.601e-6	-1.862e-5
-0.270	-5.774e-6	-1.920e-5
-0.271	-5.951e-6	-1.979e-5
-0.272	-6.135e-6	-2.040e-5
-0.273	-6.324e-6	-2.104e-5
-0.274	-6.519e-6	-2.169e-5
-0.275	-6.721e-6	-2.236e-5
-0.276	-6.929e-6	-2.305e-5
-0.277	-7.143e-6	-2.377e-5
-0.278	-7.363e-6	-2.450e-5
-0.279	-7.590e-6	-2.526e-5
-0.280	-7.824e-6	-2.605e-5
-0.281	-8.065e-6	-2.685e-5
-0.282	-8.313e-6	-2.768e-5
-0.283	-8.568e-6	-2.854e-5
-0.284	-8.831e-6	-2.942e-5
-0.285	-9.100e-6	-3.033e-5
-0.286	-9.378e-6	-3.127e-5
-0.287	-9.663e-6	-3.224e-5
-0.288	-9.956e-6	-3.323e-5
-0.289	-1.026e-5	-3.426e-5
-0.290	-1.056e-5	-3.531e-5
-0.291	-1.088e-5	-3.640e-5
-0.292	-1.120e-5	-3.752e-5
-0.293	-1.153e-5	-3.868e-5
-0.294	-1.187e-5	-3.986e-5
-0.295	-1.221e-5	-4.108e-5
-0.296	-1.256e-5	-4.234e-5
-0.297	-1.292e-5	-4.363e-5
-0.298	-1.329e-5	-4.496e-5
-0.299	-1.366e-5	-4.633e-5
-0.300	-1.404e-5	-4.773e-5
-0.301	-1.442e-5	-4.917e-5
-0.302	-1.482e-5	-5.065e-5
-0.303	-1.522e-5	-5.218e-5
-0.304	-1.562e-5	-5.374e-5
-0.305	-1.603e-5	-5.534e-5
-0.306	-1.645e-5	-5.698e-5
-0.307	-1.687e-5	-5.867e-5
-0.308	-1.730e-5	-6.040e-5
-0.309	-1.773e-5	-6.217e-5
-0.310	-1.817e-5	-6.399e-5
-0.311	-1.860e-5	-6.585e-5
-0.312	-1.905e-5	-6.776e-5
-0.313	-1.950e-5	-6.971e-5
-0.314	-1.995e-5	-7.170e-5
-0.315	-2.040e-5	-7.374e-5
-0.316	-2.086e-5	-7.583e-5
-0.317	-2.132e-5	-7.796e-5
-0.318	-2.178e-5	-8.014e-5
-0.319	-2.225e-5	-8.236e-5
-0.320	-2.272e-5	-8.463e-5
-0.321	-2.319e-5	-8.695e-5
-0.322	-2.366e-5	-8.932e-5
-0.323	-2.413e-5	-9.173e-5
-0.324	-2.460e-5	-9.419e-5
-0.325	-2.508e-5	-9.670e-5
-0.326	-2.556e-5	-9.926e-5
-0.327	-2.603e-5	-1.019e-4
-0.328	-2.651e-5	-1.045e-4
-0.329	-2.698e-5	-1.072e-4
-0.330	-2.745e-5	-1.100e-4
-0.331	-2.792e-5	-1.127e-4
-0.332	-2.838e-5	-1.156e-4
-0.333	-2.885e-5	-1.185e-4
-0.334	-2.931e-5	-1.214e-4
-0.335	-2.976e-5	-1.244e-4
-0.336	-3.022e-5	-1.274e-4
-0.337	-3.066e-5	-1.305e-4
-0.338	-3.111e-5	-1.336e-4
-0.339	-3.155e-5	-1.367e-4
-0.340	-3.198e-5	-1.399e-4
-0.341	-3.240e-5	-1.432e-4
-0.342	-3.281e-5	-1.464e-4
-0.343	-3.322e-5	-1.498e-4
-0.344	-3.362e-5	-1.531e-4
-0.345	-3.401e-5	-1.565e-4
-0.346	-3.439e-5	-1.600e-4
-0.347	-3.476e-5	-1.634e-4
-0.348	-3.512e-5	-1.670e-4
-0.349	-3.546e-5	-1.705e-4
-0.350	-3.580e-5	-1.741e-4
-0.351	-3.612e-5	-1.777e-4
-0.352	-3.644e-5	-1.813e-4
-0.353	-3.674e-5	-1.850e-4
-0.354	-3.702e-5	-1.887e-4
-0.355	-3.729e-5	-1.924e-4
-0.356	-3.755e-5	-1.962e-4
-0.357	-3.779e-5	-2.000e-4
-0.358	-3.802e-5	-2.038e-4
-0.359	-3.823e-5	-2.076e-4
-0.360	-3.842e-5	-2.114e-4
-0.361	-3.860e-5	-2.153e-4
-0.362	-3.877e-5	-2.192e-4
-0.363	-3.892e-5	-2.231e-4
-0.364	-3.906e-5	-2.270e-4
-0.365	-3.918e-5	-2.309e-4
-0.366	-3.929e-5	-2.348e-4
-0.367	-3.938e-5	-2.388e-4
-0.368	-3.945e-5	-2.427e-4
-0.369	-3.951e-5	-2.467e-4
-0.370	-3.956e-5	-2.506e-4
-0.371	-3.959e-5	-2.546e-4
-0.372	-3.961e-5	-2.585e-4
-0.373	-3.962e-5	-2.625e-4
-0.374	-3.961e-5	-2.665e-4
-0.375	-3.959e-5	-2.704e-4
-0.376	-3.956e-5	-2.744e-4
-0.377	-3.952e-5	-2.783e-4
-0.378	-3.946e-5	-2.823e-4
-0.379	-3.940e-5	-2.862e-4
-0.380	-3.932e-5	-2.901e-4
-0.381	-3.924e-5	-2.941e-4
-0.382	-3.915e-5	-2.980e-4
-0.383	-3.905e-5	-3.019e-4
-0.384	-3.894e-5	-3.058e-4
-0.385	-3.882e-5	-3.097e-4
-0.386	-3.870e-5	-3.135e-4
-0.387	-3.856e-5	-3.174e-4
-0.388	-3.843e-5	-3.212e-4
-0.389	-3.828e-5	-3.251e-4
-0.390	-3.814e-5	-3.289e-4
-0.391	-3.798e-5	-3.327e-4
-0.392	-3.782e-5	-3.365e-4
-0.393	-3.766e-5	-3.402e-4
-0.394	-3.750e-5	-3.440e-4
-0.395	-3.733e-5	-3.477e-4
-0.396	-3.716e-5	-3.514e-4
-0.397	-3.699e-5	-3.551e-4
-0.398	-3.681e-5	-3.588e-4
-0.399	-3.664e-5	-3.625e-4
-0.400	-3.646e-5	-3.661e-4
-0.401	-3.628e-5	-3.697e-4
-0.402	-3.610e-5	-3.733e-4
-0.403	-3.592e-5	-3.769e-4
-0.404	-3.574e-5	-3.805e-4
-0.405	-3.556e-5	-3.841e-4
-0.406	-3.538e-5	-3.876e-4
-0.407	-3.519e-5	-3.911e-4
-0.408	-3.501e-5	-3.946e-4
-0.409	-3.483e-5	-3.981e-4
-0.410	-3.465e-5	-4.016e-4
-0.411	-3.448e-5	-4.050e-4
-0.412	-3.430e-5	-4.085e-4
-0.413	-3.412e-5	-4.119e-4
-0.414	-3.395e-5	-4.153e-4
-0.415	-3.377e-5	-4.186e-4
-0.416	-3.360e-5	-4.220e-4
-0.417	-3.343e-5	-4.253e-4
-0.418	-3.326e-5	-4.287e-4
-0.419	-3.309e-5	-4.320e-4
-0.420	-3.292e-5	-4.353e-4
-0.421	-3.276e-5	-4.385e-4
-0.422	-3.260e-5	-4.418e-4
-0.423	-3.243e-5	-4.450e-4
-0.424	-3.228e-5	-4.483e-4
-0.425	-3.212e-5	-4.515e-4
-0.426	-3.196e-5	-4.547e-4
-0.427	-3.181e-5	-4.579e-4
-0.428	-3.166e-5	-4.610e-4
-0.429	-3.151e-5	-4.642e-4
-0.430	-3.136e-5	-4.673e-4
-0.431	-3.121e-5	-4.704e-4
-0.432	-3.107e-5	-4.735e-4
-0.433	-3.093e-5	-4.766e-4
-0.434	-3.079e-5	-4.797e-4
-0.435	-3.065e-5	-4.828e-4
-0.436	-3.051e-5	-4.858e-4
-0.437	-3.038e-5	-4.889e-4
-0.438	-3.024e-5	-4.919e-4
-0.439	-3.011e-5	-4.949e-4
-0.440	-2.998e-5	-4.979e-4
-0.441	-2.986e-5	-5.009e-4
-0.442	-2.973e-5	-5.039e-4
-0.443	-2.961e-5	-5.068e-4
-0.444	-2.949e-5	-5.098e-4
-0.445	-2.937e-5	-5.127e-4
-0.446	-2.925e-5	-5.156e-4
-0.447	-2.913e-5	-5.185e-4
-0.448	-2.902e-5	-5.214e-4
-0.449	-2.891e-5	-5.243e-4
-0.450	-2.880e-5	-5.272e-4
-0.451	-2.869e-5	-5.301e-4
-0.452	-2.858e-5	-5.329e-4
-0.453	-2.847e-5	-5.358e-4
-0.454	-2.837e-5	-5.386e-4
-0.455	-2.827e-5	-5.415e-4
-0.456	-2.817e-5	-5.443e-4
-0.457	-2.807e-5	-5.471e-4
-0.458	-2.797e-5	-5.499e-4
-0.459	-2.788e-5	-5.527e-4
-0.460	-2.778e-5	-5.554e-4
-0.461	-2.769e-5	-5.582e-4
-0.462	-2.760e-5	-5.610e-4
-0.463	-2.751e-5	-5.637e-4
-0.464	-2.742e-5	-5.665e-4
-0.465	-2.733e-5	-5.692e-4
-0.466	-2.725e-5	-5.719e-4
-0.467	-2.716e-5	-5.746e-4
-0.468	-2.708e-5	-5.773e-4
-0.469	-2.700e-5	-5.800e-4
-0.470	-2.692e-5	-5.827e-4
-0.471	-2.684e-5	-5.854e-4
-0.472	-2.676e-5	-5.881e-4
-0.473	-2.668e-5	-5.908e-4
-0.474	-2.661e-5	-5.934e-4
-0.475	-2.653e-5	-5.961e-4
-0.476	-2.646e-5	-5.987e-4
-0.477	-2.639e-5	-6.014e-4
-0.478	-2.632e-5	-6.040e-4
-0.479	-2.625e-5	-6.066e-4
-0.480	-2.618e-5	-6.092e-4
-0.481	-2.612e-5	-6.119e-4
-0.482	-2.605e-5	-6.145e-4
-0.483	-2.599e-5	-6.171e-4
-0.484	-2.592e-5	-6.196e-4
-0.485	-2.586e-5	-6.222e-4
-0.486	-2.580e-5	-6.248e-4
-0.487	-2.574e-5	-6.274e-4
-0.488	-2.568e-5	-6.300e-4
-0.489	-2.562e-5	-6.325e-4
-0.490	-2.556e-5	-6.351e-4
-0.491	-2.551e-5	-6.376e-4
-0.492	-2.545e-5	-6.402e-4
-0.493	-2.540e-5	-6.427e-4
-0.494	-2.534e-5	-6.452e-4
-0.495	-2.529e-5	-6.478e-4
-0.496	-2.524e-5	-6.503e-4
-0.497	-2.519e-5	-6.528e-4
-0.498	-2.514e-5	-6.553e-4
-0.499	-2.509e-5	-6.578e-4
-0.500	-2.504e-5	-6.603e-4
-0.501	-2.499e-5	-6.628e-4
-0.502	-2.494e-5	-6.653e-4
-0.503	-2.490e-5	-6.678e-4
-0.504	-2.485e-5	-6.703e-4
-0.505	-2.481e-5	-6.728e-4
-0.506	-2.477e-5	-6.753e-4
-0.507	-2.472e-5	-6.777e-4
-0.508	-2.468e-5	-6.802e-4
-0.509	-2.464e-5	-6.827e-4
-0.510	-2.460e-5	-6.851e-4
-0.511	-2.456e-5	-6.876e-4
-0.512	-2.452e-5	-6.900e-4
-0.513	-2.448e-5	-6.925e-4
-0.514	-2.444e-5	-6.949e-4
-0.515	-2.440e-5	-6.974e-4
-0.516	-2.436e-5	-6.998e-4
-0.517	-2.433e-5	-7.022e-4
-0.518	-2.429e-5	-7.047e-4
-0.519	-2.426e-5	-7.071e-4
-0.520	-2.422e-5	-7.095e-4
-0.521	-2.419e-5	-7.119e-4
-0.522	-2.415e-5	-7.144e-4
-0.523	-2.412e-5	-7.168e-4
-0.524	-2.409e-5	-7.192e-4
-0.525	-2.406e-5	-7.216e-4
-0.526	-2.403e-5	-7.240e-4
-0.527	-2.399e-5	-7.264e-4
-0.528	-2.396e-5	-7.288e-4
-0.529	-2.393e-5	-7.312e-4
-0.530	-2.391e-5	-7.336e-4
-0.531	-2.388e-5	-7.360e-4
-0.532	-2.385e-5	-7.383e-4
-0.533	-2.382e-5	-7.407e-4
-0.534	-2.379e-5	-7.431e-4
-0.535	-2.377e-5	-7.455e-4
-0.536	-2.374e-5	-7.478e-4
-0.537	-2.371e-5	-7.502e-4
-0.538	-2.369e-5	-7.526e-4
-0.539	-2.366e-5	-7.550e-4
-0.540	-2.364e-5	-7.573e-4
-0.541	-2.361e-5	-7.597e-4
-0.542	-2.359e-5	-7.620e-4
-0.543	-2.357e-5	-7.644e-4
-0.544	-2.354e-5	-7.667e-4
-0.545	-2.352e-5	-7.691e-4
-0.546	-2.350e-5	-7.715e-4
-0.547	-2.348e-5	-7.738e-4
-0.548	-2.345e-5	-7.761e-4
-0.549	-2.343e-5	-7.785e-4
-0.550	-2.341e-5	-7.808e-4
-0.551	-2.339e-5	-7.832e-4
-0.552	-2.337e-5	-7.855e-4
-0.553	-2.335e-5	-7.878e-4
-0.554	-2.333e-5	-7.902e-4
-0.555	-2.331e-5	-7.925e-4
-0.556	-2.329e-5	-7.948e-4
-0.557	-2.328e-5	-7.972e-4
-0.558	-2.326e-5	-7.995e-4
-0.559	-2.324e-5	-8.018e-4
-0.560	-2.322e-5	-8.041e-4
-0.561	-2.321e-5	-8.065e-4
-0.562	-2.319e-5	-8.088e-4
-0.563	-2.317e-5	-8.111e-4
-0.564	-2.316e-5	-8.134e-4
-0.565	-2.314e-5	-8.157e-4
-0.566	-2.312e-5	-8.180e-4
-0.567	-2.311e-5	-8.203e-4
-0.568	-2.309e-5	-8.227e-4
-0.569	-2.308e-5	-8.250e-4
-0.570	-2.306e-5	-8.273e-4
-0.571	-2.305e-5	-8.296e-4
-0.572	-2.303e-5	-8.319e-4
-0.573	-2.302e-5	-8.342e-4
-0.574	-2.301e-5	-8.365e-4
-0.575	-2.299e-5	-8.388e-4
-0.576	-2.298e-5	-8.411e-4
-0.577	-2.297e-5	-8.434e-4
-0.578	-2.295e-5	-8.457e-4
-0.579	-2.294e-5	-8.480e-4
-0.580	-2.293e-5	-8.503e-4
-0.581	-2.292e-5	-8.525e-4
-0.582	-2.290e-5	-8.548e-4
-0.583	-2.289e-5	-8.571e-4
-0.584	-2.288e-5	-8.594e-4
-0.585	-2.287e-5	-8.617e-4
-0.586	-2.286e-5	-8.640e-4
-0.587	-2.285e-5	-8.663e-4
-0.588	-2.283e-5	-8.686e-4
-0.589	-2.282e-5	-8.708e-4
-0.590	-2.281e-5	-8.731e-4
-0.591	-2.280e-5	-8.754e-4
-0.592	-2.279e-5	-8.777e-4
-0.593	-2.278e-5	-8.800e-4
-0.594	-2.277e-5	-8.822e-4
-0.595	-2.276e-5	-8.845e-4
-0.596	-2.275e-5	-8.868e-4
-0.597	-2.274e-5	-8.891e-4
-0.598	-2.273e-5	-8.913e-4
-0.599	-2.273e-5	-8.936e-4
-0.600	-2.270e-5	-2.270e-6
-0.599	-2.267e-5	-4.537e-6
-0.598	-2.264e-5	-6.801e-6
-0.597	-2.262e-5	-9.063e-6
-0.596	-2.260e-5	-1.132e-5
-0.595	-2.259e-5	-1.358e-5
-0.594	-2.257e-5	-1.584e-5
-0.593	-2.255e-5	-1.809e-5
-0.592	-2.254e-5	-2.035e-5
-0.591	-2.253e-5	-2.260e-5
-0.590	-2.251e-5	-2.485e-5
-0.589	-2.250e-5	-2.710e-5
-0.588	-2.249e-5	-2.935e-5
-0.587	-2.247e-5	-3.160e-5
-0.586	-2.246e-5	-3.384e-5
-0.585	-2.245e-5	-3.609e-5
-0.584	-2.244e-5	-3.833e-5
-0.583	-2.243e-5	-4.058e-5
-0.582	-2.241e-5	-4.282e-5
-0.581	-2.240e-5	-4.506e-5
-0.580	-2.239e-5	-4.730e-5
-0.579	-2.238e-5	-4.953e-5
-0.578	-2.237e-5	-5.177e-5
-0.577	-2.236e-5	-5.401e-5
-0.576	-2.235e-5	-5.624e-5
-0.575	-2.234e-5	-5.848e-5
-0.574	-2.233e-5	-6.071e-5
-0.573	-2.232e-5	-6.294e-5
-0.572	-2.231e-5	-6.517e-5
-0.571	-2.230e-5	-6.740e-5
-0.570	-2.229e-5	-6.963e-5
-0.569	-2.228e-5	-7.186e-5
-0.568	-2.228e-5	-7.409e-5
-0.567	-2.227e-5	-7.632e-5
-0.566	-2.226e-5	-7.854e-5
-0.565	-2.225e-5	-8.077e-5
-0.564	-2.224e-5	-8.299e-5
-0.563	-2.223e-5	-8.521e-5
-0.562	-2.222e-5	-8.744e-5
-0.561	-2.222e-5	-8.966e-5
-0.560	-2.221e-5	-9.188e-5
-0.559	-2.220e-5	-9.410e-5
-0.558	-2.219e-5	-9.632e-5
-0.557	-2.218e-5	-9.854e-5
-0.556	-2.218e-5	-1.008e-4
-0.555	-2.217e-5	-1.030e-4
-0.554	-2.216e-5	-1.052e-4
-0.553	-2.215e-5	-1.074e-4
-0.552	-2.215e-5	-1.096e-4
-0.551	-2.214e-5	-1.118e-4
-0.550	-2.213e-5	-1.140e-4
-0.549	-2.213e-5	-1.163e-4
-0.548	-2.212e-5	-1.185e-4
-0.547	-2.211e-5	-1.207e-4
-0.546	-2.210e-5	-1.229e-4
-0.545	-2.210e-5	-1.251e-4
-0.544	-2.209e-5	-1.273e-4
-0.543	-2.208e-5	-1.295e-4
-0.542	-2.208e-5	-1.317e-4
-0.541	-2.207e-5	-1.339e-4
-0.540	-2.206e-5	-1.361e-4
-0.539	-2.205e-5	-1.383e-4
-0.538	-2.205e-5	-1.405e-4
-0.537	-2.204e-5	-1.428e-4
-0.536	-2.203e-5	-1.450e-4
-0.535	-2.203e-5	-1.472e-4
-0.534	-2.202e-5	-1.494e-4
-0.533	-2.201e-5	-1.516e-4
-0.532	-2.201e-5	-1.538e-4
-0.531	-2.200e-5	-1.560e-4
-0.530	-2.199e-5	-1.582e-4
-0.529	-2.199e-5	-1.604e-4
-0.528	-2.198e-5	-1.626e-4
-0.527	-2.197e-5	-1.648e-4
-0.526	-2.197e-5	-1.670e-4
-0.525	-2.196e-5	-1.691e-4
-0.524	-2.195e-5	-1.713e-4
-0.523	-2.195e-5	-1.735e-4
-0.522	-2.194e-5	-1.757e-4
-0.521	-2.193e-5	-1.779e-4
-0.520	-2.193e-5	-1.801e-4
-0.519	-2.192e-5	-1.823e-4
-0.518	-2.191e-5	-1.845e-4
-0.517	-2.191e-5	-1.867e-4
-0.516	-2.190e-5	-1.889e-4
-0.515	-2.189e-5	-1.911e-4
-0.514	-2.188e-5	-1.933e-4
-0.513	-2.188e-5	-1.954e-4
-0.512	-2.187e-5	-1.976e-4
-0.511	-2.186e-5	-1.998e-4
-0.510	-2.186e-5	-2.020e-4
-0.509	-2.185e-5	-2.042e-4
-0.508	-2.184e-5	-2.064e-4
-0.507	-2.183e-5	-2.086e-4
-0.506	-2.182e-5	-2.107e-4
-0.505	-2.182e-5	-2.129e-4
-0.504	-2.181e-5	-2.151e-4
-0.503	-2.180e-5	-2.173e-4
-0.502	-2.179e-5	-2.195e-4
-0.501	-2.178e-5	-2.216e-4
-0.500	-2.177e-5	-2.238e-4
-0.499	-2.176e-5	-2.260e-4
-0.498	-2.176e-5	-2.282e-4
-0.497	-2.175e-5	-2.303e-4
-0.496	-2.174e-5	-2.325e-4
-0.495	-2.173e-5	-2.347e-4
-0.494	-2.172e-5	-2.369e-4
-0.493	-2.171e-5	-2.390e-4
-0.492	-2.170e-5	-2.412e-4
-0.491	-2.169e-5	-2.434e-4
-0.490	-2.168e-5	-2.455e-4
-0.489	-2.166e-5	-2.477e-4
-0.488	-2.165e-5	-2.499e-4
-0.487	-2.164e-5	-2.520e-4
-0.486	-2.163e-5	-2.542e-4
-0.485	-2.162e-5	-2.564e-4
-0.484	-2.160e-5	-2.585e-4
-0.483	-2.159e-5	-2.607e-4
-0.482	-2.158e-5	-2.628e-4
-0.481	-2.156e-5	-2.650e-4
-0.480	-2.155e-5	-2.671e-4
-0.479	-2.153e-5	-2.693e-4
-0.478	-2.152e-5	-2.715e-4
-0.477	-2.150e-5	-2.736e-4
-0.476	-2.149e-5	-2.758e-4
-0.475	-2.147e-5	-2.779e-4
-0.474	-2.145e-5	-2.800e-4
-0.473	-2.144e-5	-2.822e-4
-0.472	-2.142e-5	-2.843e-4
-0.471	-2.140e-5	-2.865e-4
-0.470	-2.138e-5	-2.886e-4
-0.469	-2.136e-5	-2.907e-4
-0.468	-2.134e-5	-2.929e-4
-0.467	-2.132e-5	-2.950e-4
-0.466	-2.130e-5	-2.971e-4
-0.465	-2.127e-5	-2.993e-4
-0.464	-2.125e-5	-3.014e-4
-0.463	-2.122e-5	-3.035e-4
-0.462	-2.120e-5	-3.056e-4
-0.461	-2.117e-5	-3.078e-4
-0.460	-2.115e-5	-3.099e-4
-0.459	-2.112e-5	-3.120e-4
-0.458	-2.109e-5	-3.141e-4
-0.457	-2.106e-5	-3.162e-4
-0.456	-2.103e-5	-3.183e-4
-0.455	-2.100e-5	-3.204e-4
-0.454	-2.097e-5	-3.225e-4
-0.453	-2.093e-5	-3.246e-4
-0.452	-2.090e-5	-3.267e-4
-0.451	-2.086e-5	-3.288e-4
-0.450	-2.082e-5	-3.308e-4
-0.449	-2.078e-5	-3.329e-4
-0.448	-2.074e-5	-3.350e-4
-0.447	-2.070e-5	-3.371e-4
-0.446	-2.066e-5	-3.391e-4
-0.445	-2.062e-5	-3.412e-4
-0.444	-2.057e-5	-3.433e-4
-0.443	-2.052e-5	-3.453e-4
-0.442	-2.047e-5	-3.474e-4
-0.441	-2.042e-5	-3.494e-4
-0.440	-2.037e-5	-3.514e-4
-0.439	-2.031e-5	-3.535e-4
-0.438	-2.026e-5	-3.555e-4
-0.437	-2.020e-5	-3.575e-4
-0.436	-2.014e-5	-3.595e-4
-0.435	-2.007e-5	-3.615e-4
-0.434	-2.001e-5	-3.635e-4
-0.433	-1.994e-5	-3.655e-4
-0.432	-1.987e-5	-3.675e-4
-0.431	-1.980e-5	-3.695e-4
-0.430	-1.972e-5	-3.715e-4
-0.429	-1.964e-5	-3.734e-4
-0.428	-1.956e-5	-3.754e-4
-0.427	-1.948e-5	-3.773e-4
-0.426	-1.939e-5	-3.793e-4
-0.425	-1.930e-5	-3.812e-4
-0.424	-1.921e-5	-3.831e-4
-0.423	-1.912e-5	-3.850e-4
-0.422	-1.902e-5	-3.869e-4
-0.421	-1.891e-5	-3.888e-4
-0.420	-1.881e-5	-3.907e-4
-0.419	-1.870e-5	-3.926e-4
-0.418	-1.859e-5	-3.944e-4
-0.417	-1.847e-5	-3.963e-4
-0.416	-1.835e-5	-3.981e-4
-0.415	-1.822e-5	-3.999e-4
-0.414	-1.809e-5	-4.017e-4
-0.413	-1.796e-5	-4.035e-4
-0.412	-1.782e-5	-4.053e-4
-0.411	-1.767e-5	-4.071e-4
-0.410	-1.752e-5	-4.088e-4
-0.409	-1.737e-5	-4.106e-4
-0.408	-1.721e-5	-4.123e-4
-0.407	-1.704e-5	-4.140e-4
-0.406	-1.688e-5	-4.157e-4
-0.405	-1.670e-5	-4.174e-4
-0.404	-1.652e-5	-4.190e-4
-0.403	-1.633e-5	-4.206e-4
-0.402	-1.614e-5	-4.223e-4
-0.401	-1.594e-5	-4.239e-4
-0.400	-1.573e-5	-4.254e-4
-0.399	-1.552e-5	-4.270e-4
-0.398	-1.530e-5	-4.285e-4
-0.397	-1.508e-5	-4.300e-4
-0.396	-1.485e-5	-4.315e-4
-0.395	-1.461e-5	-4.330e-4
-0.394	-1.436e-5	-4.344e-4
-0.393	-1.411e-5	-4.358e-4
-0.392	-1.385e-5	-4.372e-4
-0.391	-1.358e-5	-4.386e-4
-0.390	-1.330e-5	-4.399e-4
-0.389	-1.302e-5	-4.412e-4
-0.388	-1.273e-5	-4.425e-4
-0.387	-1.243e-5	-4.437e-4
-0.386	-1.212e-5	-4.449e-4
-0.385	-1.181e-5	-4.461e-4
-0.384	-1.149e-5	-4.472e-4
-0.383	-1.116e-5	-4.484e-4
-0.382	-1.082e-5	-4.494e-4
-0.381	-1.047e-5	-4.505e-4
-0.380	-1.012e-5	-4.515e-4
-0.379	-9.765e-6	-4.525e-4
-0.378	-9.396e-6	-4.534e-4
-0.377	-9.021e-6	-4.543e-4
-0.376	-8.640e-6	-4.552e-4
-0.375	-8.252e-6	-4.560e-4
-0.374	-7.858e-6	-4.568e-4
-0.373	-7.457e-6	-4.575e-4
-0.372	-7.050e-6	-4.582e-4
-0.371	-6.636e-6	-4.589e-4
-0.370	-6.217e-6	-4.595e-4
-0.369	-5.793e-6	-4.601e-4
-0.368	-5.365e-6	-4.606e-4
-0.367	-4.931e-6	-4.611e-4
-0.366	-4.494e-6	-4.616e-4
-0.365	-4.052e-6	-4.620e-4
-0.364	-3.608e-6	-4.624e-4
-0.363	-3.161e-6	-4.627e-4
-0.362	-2.714e-6	-4.629e-4
-0.361	-2.265e-6	-4.632e-4
-0.360	-1.815e-6	-4.634e-4
-0.359	-1.364e-6	-4.635e-4
-0.358	-9.123e-7	-4.636e-4
-0.357	-4.609e-7	-4.636e-4
-0.356	-1.112e-8	-4.636e-4
-0.355	4.365e-7	-4.636e-4
-0.354	8.827e-7	-4.635e-4
-0.353	1.326e-6	-4.634e-4
-0.352	1.766e-6	-4.632e-4
-0.351	2.202e-6	-4.630e-4
-0.350	2.632e-6	-4.627e-4
-0.349	3.055e-6	-4.624e-4
-0.348	3.473e-6	-4.620e-4
-0.347	3.886e-6	-4.617e-4
-0.346	4.294e-6	-4.612e-4
-0.345	4.694e-6	-4.608e-4
-0.344	5.087e-6	-4.603e-4
-0.343	5.471e-6	-4.597e-4
-0.342	5.846e-6	-4.591e-4
-0.341	6.212e-6	-4.585e-4
-0.340	6.569e-6	-4.578e-4
-0.339	6.918e-6	-4.572e-4
-0.338	7.257e-6	-4.564e-4
-0.337	7.586e-6	-4.557e-4
-0.336	7.905e-6	-4.549e-4
-0.335	8.214e-6	-4.541e-4
-0.334	8.512e-6	-4.532e-4
-0.333	8.801e-6	-4.523e-4
-0.332	9.079e-6	-4.514e-4
-0.331	9.346e-6	-4.505e-4
-0.330	9.602e-6	-4.495e-4
-0.329	9.846e-6	-4.485e-4
-0.328	1.008e-5	-4.475e-4
-0.327	1.030e-5	-4.465e-4
-0.326	1.052e-5	-4.454e-4
-0.325	1.072e-5	-4.444e-4
-0.324	1.091e-5	-4.433e-4
-0.323	1.110e-5	-4.422e-4
-0.322	1.127e-5	-4.410e-4
-0.321	1.143e-5	-4.399e-4
-0.320	1.158e-5	-4.387e-4
-0.319	1.172e-5	-4.376e-4
-0.318	1.185e-5	-4.364e-4
-0.317	1.197e-5	-4.352e-4
-0.316	1.208e-5	-4.340e-4
-0.315	1.219e-5	-4.328e-4
-0.314	1.229e-5	-4.315e-4
-0.313	1.238e-5	-4.303e-4
-0.312	1.245e-5	-4.291e-4
-0.311	1.252e-5	-4.278e-4
-0.310	1.258e-5	-4.265e-4
-0.309	1.264e-5	-4.253e-4
-0.308	1.269e-5	-4.240e-4
-0.307	1.273e-5	-4.227e-4
-0.306	1.277e-5	-4.215e-4
-0.305	1.280e-5	-4.202e-4
-0.304	1.281e-5	-4.189e-4
-0.303	1.283e-5	-4.176e-4
-0.302	1.283e-5	-4.163e-4
-0.301	1.284e-5	-4.150e-4
-0.300	1.283e-5	-4.138e-4
-0.299	1.283e-5	-4.125e-4
-0.298	1.281e-5	-4.112e-4
-0.297	1.279e-5	-4.099e-4
-0.296	1.277e-5	-4.086e-4
-0.295	1.274e-5	-4.074e-4
-0.294	1.271e-5	-4.061e-4
-0.293	1.268e-5	-4.048e-4
-0.292	1.264e-5	-4.036e-4
-0.291	1.259e-5	-4.023e-4
-0.290	1.255e-5	-4.011e-4
-0.289	1.250e-5	-3.998e-4
-0.288	1.245e-5	-3.986e-4
-0.287	1.239e-5	-3.973e-4
-0.286	1.234e-5	-3.961e-4
-0.285	1.228e-5	-3.949e-4
-0.284	1.221e-5	-3.936e-4
-0.283	1.215e-5	-3.924e-4
-0.282	1.208e-5	-3.912e-4
-0.281	1.201e-5	-3.900e-4
-0.280	1.194e-5	-3.888e-4
-0.279	1.187e-5	-3.876e-4
-0.278	1.180e-5	-3.864e-4
-0.277	1.173e-5	-3.853e-4
-0.276	1.165e-5	-3.841e-4
-0.275	1.157e-5	-3.830e-4
-0.274	1.150e-5	-3.818e-4
-0.273	1.142e-5	-3.807e-4
-0.272	1.134e-5	-3.795e-4
-0.271	1.126e-5	-3.784e-4
-0.270	1.118e-5	-3.773e-4
-0.269	1.109e-5	-3.762e-4
-0.268	1.101e-5	-3.751e-4
-0.267	1.092e-5	-3.740e-4
-0.266	1.084e-5	-3.729e-4
-0.265	1.075e-5	-3.718e-4
-0.264	1.067e-5	-3.708e-4
-0.263	1.058e-5	-3.697e-4
-0.262	1.049e-5	-3.686e-4
-0.261	1.041e-5	-3.676e-4
-0.260	1.032e-5	-3.666e-4
-0.259	1.023e-5	-3.656e-4
-0.258	1.014e-5	-3.645e-4
-0.257	1.005e-5	-3.635e-4
-0.256	9.959e-6	-3.625e-4
-0.255	9.869e-6	-3.616e-4
-0.254	9.778e-6	-3.606e-4
-0.253	9.687e-6	-3.596e-4
-0.252	9.596e-6	-3.586e-4
-0.251	9.504e-6	-3.577e-4
-0.250	9.412e-6	-3.568e-4
-0.249	9.319e-6	-3.558e-4
-0.248	9.226e-6	-3.549e-4
-0.247	9.133e-6	-3.540e-4
-0.246	9.040e-6	-3.531e-4
-0.245	8.947e-6	-3.522e-4
-0.244	8.853e-6	-3.513e-4
-0.243	8.760e-6	-3.504e-4
-0.242	8.665e-6	-3.496e-4
-0.241	8.571e-6	-3.487e-4
-0.240	8.476e-6	-3.479e-4
-0.239	8.382e-6	-3.470e-4
-0.238	8.288e-6	-3.462e-4
-0.237	8.195e-6	-3.454e-4
-0.236	8.101e-6	-3.446e-4
-0.235	8.007e-6	-3.438e-4
-0.234	7.912e-6	-3.430e-4
-0.233	7.818e-6	-3.422e-4
-0.232	7.724e-6	-3.414e-4
-0.231	7.630e-6	-3.407e-4
-0.230	7.536e-6	-3.399e-4
-0.229	7.443e-6	-3.392e-4
-0.228	7.350e-6	-3.384e-4
-0.227	7.257e-6	-3.377e-4
-0.226	7.164e-6	-3.370e-4
-0.225	7.072e-6	-3.363e-4
-0.224	6.980e-6	-3.356e-4
-0.223	6.889e-6	-3.349e-4
-0.222	6.798e-6	-3.342e-4
-0.221	6.708e-6	-3.335e-4
-0.220	6.619e-6	-3.329e-4
-0.219	6.529e-6	-3.322e-4
-0.218	6.441e-6	-3.316e-4
-0.217	6.353e-6	-3.309e-4
-0.216	6.265e-6	-3.303e-4
-0.215	6.177e-6	-3.297e-4
-0.214	6.091e-6	-3.291e-4
-0.213	6.005e-6	-3.285e-4
-0.212	5.920e-6	-3.279e-4
-0.211	5.836e-6	-3.273e-4
-0.210	5.753e-6	-3.267e-4
-0.209	5.670e-6	-3.262e-4
-0.208	5.588e-6	-3.256e-4
-0.207	5.507e-6	-3.251e-4
-0.206	5.426e-6	-3.245e-4
-0.205	5.347e-6	-3.240e-4
-0.204	5.268e-6	-3.235e-4
-0.203	5.191e-6	-3.229e-4
-0.202	5.115e-6	-3.224e-4
-0.201	5.039e-6	-3.219e-4
-0.200	4.965e-6	-3.214e-4
-0.199	4.891e-6	-3.209e-4
-0.198	4.818e-6	-3.204e-4
-0.197	4.745e-6	-3.200e-4
-0.196	4.674e-6	-3.195e-4
-0.195	4.603e-6	-3.190e-4
-0.194	4.533e-6	-3.186e-4
-0.193	4.465e-6	-3.181e-4
-0.192	4.397e-6	-3.177e-4
-0.191	4.331e-6	-3.173e-4
-0.190	4.265e-6	-3.168e-4
-0.189	4.200e-6	-3.164e-4
-0.188	4.136e-6	-3.160e-4
-0.187	4.073e-6	-3.156e-4
-0.186	4.011e-6	-3.152e-4
-0.185	3.949e-6	-3.148e-4
-0.184	3.888e-6	-3.144e-4
-0.183	3.829e-6	-3.140e-4
-0.182	3.770e-6	-3.137e-4
-0.181	3.712e-6	-3.133e-4
-0.180	3.655e-6	-3.129e-4
-0.179	3.599e-6	-3.126e-4
-0.178	3.544e-6	-3.122e-4
-0.177	3.490e-6	-3.119e-4
-0.176	3.437e-6	-3.115e-4
-0.175	3.384e-6	-3.112e-4
-0.174	3.332e-6	-3.108e-4
-0.173	3.282e-6	-3.105e-4
-0.172	3.231e-6	-3.102e-4
-0.171	3.182e-6	-3.099e-4
-0.170	3.133e-6	-3.096e-4
-0.169	3.085e-6	-3.093e-4
-0.168	3.038e-6	-3.090e-4
-0.167	2.991e-6	-3.087e-4
-0.166	2.946e-6	-3.084e-4
-0.165	2.902e-6	-3.081e-4
-0.164	2.858e-6	-3.078e-4
-0.163	2.815e-6	-3.075e-4
-0.162	2.772e-6	-3.072e-4
-0.161	2.730e-6	-3.070e-4
-0.160	2.689e-6	-3.067e-4
-0.159	2.649e-6	-3.064e-4
-0.158	2.609e-6	-3.062e-4
-0.157	2.571e-6	-3.059e-4
-0.156	2.533e-6	-3.056e-4
-0.155	2.495e-6	-3.054e-4
-0.154	2.459e-6	-3.052e-4
-0.153	2.423e-6	-3.049e-4
-0.152	2.387e-6	-3.047e-4
-0.151	2.352e-6	-3.044e-4
-0.150	2.318e-6	-3.042e-4
-0.149	2.285e-6	-3.040e-4
-0.148	2.252e-6	-3.037e-4
-0.147	2.220e-6	-3.035e-4
-0.146	2.188e-6	-3.033e-4
-0.145	2.158e-6	-3.031e-4
-0.144	2.128e-6	-3.029e-4
-0.143	2.098e-6	-3.027e-4
-0.142	2.070e-6	-3.025e-4
-0.141	2.042e-6	-3.023e-4
-0.140	2.014e-6	-3.021e-4
-0.139	1.988e-6	-3.019e-4
-0.138	1.962e-6	-3.017e-4
-0.137	1.937e-6	-3.015e-4
-0.136	1.913e-6	-3.013e-4
-0.135	1.889e-6	-3.011e-4
-0.134	1.865e-6	-3.009e-4
-0.133	1.843e-6	-3.007e-4
-0.132	1.820e-6	-3.005e-4
-0.131	1.799e-6	-3.004e-4
-0.130	1.778e-6	-3.002e-4
-0.129	1.758e-6	-3.000e-4
-0.128	1.738e-6	-2.998e-4
-0.127	1.720e-6	-2.997e-4
-0.126	1.701e-6	-2.995e-4
-0.125	1.683e-6	-2.993e-4
-0.124	1.666e-6	-2.992e-4
-0.123	1.650e-6	-2.990e-4
-0.122	1.634e-6	-2.988e-4
-0.121	1.618e-6	-2.987e-4
-0.120	1.604e-6	-2.985e-4
-0.119	1.589e-6	-2.983e-4
-0.118	1.575e-6	-2.982e-4
-0.117	1.562e-6	-2.980e-4
-0.116	1.549e-6	-2.979e-4
-0.115	1.536e-6	-2.977e-4
-0.114	1.524e-6	-2.976e-4
-0.113	1.512e-6	-2.974e-4
-0.112	1.500e-6	-2.973e-4
-0.111	1.489e-6	-2.971e-4
-0.110	1.478e-6	-2.970e-4
-0.109	1.467e-6	-2.968e-4
-0.108	1.456e-6	-2.967e-4
-0.107	1.445e-6	-2.965e-4
-0.106	1.435e-6	-2.964e-4
-0.105	1.424e-6	-2.962e-4
-0.104	1.413e-6	-2.961e-4
-0.103	1.403e-6	-2.960e-4
-0.102	1.392e-6	-2.958e-4
-0.101	1.381e-6	-2.957e-4
-0.100	1.370e-6	-2.956e-4
-0.099	1.359e-6	-2.954e-4
-0.098	1.347e-6	-2.953e-4
-0.097	1.336e-6	-2.951e-4
-0.096	1.324e-6	-2.950e-4
-0.095	1.312e-6	-2.949e-4
-0.094	1.300e-6	-2.948e-4
-0.093	1.287e-6	-2.946e-4
-0.092	1.275e-6	-2.945e-4
-0.091	1.262e-6	-2.944e-4
-0.090	1.249e-6	-2.942e-4
-0.089	1.236e-6	-2.941e-4
-0.088	1.223e-6	-2.940e-4
-0.087	1.209e-6	-2.939e-4
-0.086	1.196e-6	-2.938e-4
-0.085	1.182e-6	-2.936e-4
-0.084	1.169e-6	-2.935e-4
-0.083	1.155e-6	-2.934e-4
-0.082	1.142e-6	-2.933e-4
-0.081	1.128e-6	-2.932e-4
-0.080	1.115e-6	-2.931e-4
-0.079	1.101e-6	-2.930e-4
-0.078	1.088e-6	-2.929e-4
-0.077	1.075e-6	-2.927e-4
-0.076	1.062e-6	-2.926e-4
-0.075	1.049e-6	-2.925e-4
-0.074	1.036e-6	-2.924e-4
-0.073	1.023e-6	-2.923e-4
-0.072	1.011e-6	-2.922e-4
-0.071	9.982e-7	-2.921e-4
-0.070	9.859e-7	-2.920e-4
-0.069	9.739e-7	-2.919e-4
-0.068	9.621e-7	-2.918e-4
-0.067	9.504e-7	-2.917e-4
-0.066	9.390e-7	-2.916e-4
-0.065	9.277e-7	-2.916e-4
-0.064	9.165e-7	-2.915e-4
-0.063	9.055e-7	-2.914e-4
-0.062	8.946e-7	-2.913e-4
-0.061	8.840e-7	-2.912e-4
-0.060	8.736e-7	-2.911e-4
-0.059	8.635e-7	-2.910e-4
-0.058	8.535e-7	-2.909e-4
-0.057	8.436e-7	-2.908e-4
-0.056	8.339e-7	-2.908e-4
-0.055	8.244e-7	-2.907e-4
-0.054	8.150e-7	-2.906e-4
-0.053	8.059e-7	-2.905e-4
-0.052	7.969e-7	-2.904e-4
-0.051	7.882e-7	-2.904e-4
-0.050	7.796e-7	-2.903e-4
-0.049	7.711e-7	-2.902e-4
-0.048	7.627e-7	-2.901e-4
-0.047	7.545e-7	-2.901e-4
-0.046	7.463e-7	-2.900e-4
-0.045	7.384e-7	-2.899e-4
-0.044	7.307e-7	-2.898e-4
-0.043	7.232e-7	-2.898e-4
-0.042	7.158e-7	-2.897e-4
-0.041	7.085e-7	-2.896e-4
-0.040	7.014e-7	-2.895e-4
-0.039	6.944e-7	-2.895e-4
-0.038	6.876e-7	-2.894e-4
-0.037	6.809e-7	-2.893e-4
-0.036	6.744e-7	-2.893e-4
-0.035	6.679e-7	-2.892e-4
-0.034	6.616e-7	-2.891e-4
-0.033	6.554e-7	-2.891e-4
-0.032	6.493e-7	-2.890e-4
-0.031	6.434e-7	-2.889e-4
-0.030	6.375e-7	-2.889e-4
-0.029	6.318e-7	-2.888e-4
-0.028	6.262e-7	-2.888e-4
-0.027	6.207e-7	-2.887e-4
-0.026	6.154e-7	-2.886e-4
-0.025	6.101e-7	-2.886e-4
-0.024	6.050e-7	-2.885e-4
-0.023	5.999e-7	-2.885e-4
-0.022	5.949e-7	-2.884e-4
-0.021	5.900e-7	-2.883e-4
-0.020	5.852e-7	-2.883e-4
-0.019	5.805e-7	-2.882e-4
-0.018	5.759e-7	-2.882e-4
-0.017	5.715e-7	-2.881e-4
-0.016	5.671e-7	-2.880e-4
-0.015	5.628e-7	-2.880e-4
-0.014	5.586e-7	-2.879e-4
-0.013	5.545e-7	-2.879e-4
-0.012	5.505e-7	-2.878e-4
-0.011	5.465e-7	-2.878e-4
-0.010	5.425e-7	-2.877e-4
-0.009	5.386e-7	-2.877e-4
-0.008	5.348e-7	-2.876e-4
-0.007	5.311e-7	-2.876e-4
-0.006	5.275e-7	-2.875e-4
-0.005	5.240e-7	-2.874e-4
-0.004	5.205e-7	-2.874e-4
-0.003	5.171e-7	-2.873e-4
-0.002	5.137e-7	-2.873e-4
-0.001	5.105e-7	-2.872e-4
