Nov. 4, 2019   15:07:37
Cyclic Voltammetry
File: cv_2,3-dsqui_1m_kcl_10mm_hcl_scan_rates_004.bin
Data Source:  Experiment
Instrument Model:  CHI760E
Data Proc:  Smoothing
Header: 
Note: 

Init E (V) = 0
High E (V) = 0
Low E (V) = -0.6
Init P/N = N
Scan Rate (V/s) = 0.1
Segment = 6
Sample Interval (V) = 0.001
Quiet Time (sec) = 2
Sensitivity (A/V) = 1e-4

Segment 1:
Ep = -0.376V
Eh = -0.323V
ip = -1.011e-4A

Segment 2:
Ep = -0.311V
Eh = -0.369V
ip = 7.952e-5A

Segment 3:
Ep = -0.376V
Eh = -0.323V
ip = -9.479e-5A

Segment 4:
Ep = -0.309V
Eh = -0.368V
ip = 7.817e-5A

Segment 5:
Ep = -0.375V
Eh = -0.323V
ip = -9.306e-5A

Segment 6:
Ep = -0.309V
Eh = -0.368V
ip = 7.794e-5A

Potential/V	Current/A

0.000	7.317e-7	7.317e-9
-0.001	6.252e-7	1.357e-8
-0.002	5.412e-7	1.898e-8
-0.003	4.796e-7	2.378e-8
-0.004	4.485e-7	2.826e-8
-0.005	4.316e-7	3.258e-8
-0.006	4.192e-7	3.677e-8
-0.007	4.029e-7	4.080e-8
-0.008	3.886e-7	4.468e-8
-0.009	3.750e-7	4.843e-8
-0.010	3.625e-7	5.206e-8
-0.011	3.500e-7	5.556e-8
-0.012	3.381e-7	5.894e-8
-0.013	3.260e-7	6.220e-8
-0.014	3.147e-7	6.535e-8
-0.015	3.037e-7	6.838e-8
-0.016	2.935e-7	7.132e-8
-0.017	2.829e-7	7.415e-8
-0.018	2.729e-7	7.688e-8
-0.019	2.626e-7	7.950e-8
-0.020	2.530e-7	8.203e-8
-0.021	2.435e-7	8.447e-8
-0.022	2.345e-7	8.681e-8
-0.023	2.251e-7	8.906e-8
-0.024	2.162e-7	9.123e-8
-0.025	2.068e-7	9.329e-8
-0.026	1.982e-7	9.528e-8
-0.027	1.895e-7	9.717e-8
-0.028	1.813e-7	9.898e-8
-0.029	1.725e-7	1.007e-7
-0.030	1.643e-7	1.024e-7
-0.031	1.556e-7	1.039e-7
-0.032	1.477e-7	1.054e-7
-0.033	1.394e-7	1.068e-7
-0.034	1.317e-7	1.081e-7
-0.035	1.233e-7	1.093e-7
-0.036	1.156e-7	1.105e-7
-0.037	1.076e-7	1.116e-7
-0.038	9.994e-8	1.126e-7
-0.039	9.199e-8	1.135e-7
-0.040	8.434e-8	1.143e-7
-0.041	7.612e-8	1.151e-7
-0.042	6.838e-8	1.158e-7
-0.043	5.996e-8	1.164e-7
-0.044	5.201e-8	1.169e-7
-0.045	4.370e-8	1.173e-7
-0.046	3.581e-8	1.177e-7
-0.047	2.760e-8	1.180e-7
-0.048	1.964e-8	1.182e-7
-0.049	1.081e-8	1.183e-7
-0.050	2.394e-9	1.183e-7
-0.051	-6.476e-9	1.182e-7
-0.052	-1.459e-8	1.181e-7
-0.053	-2.278e-8	1.178e-7
-0.054	-3.077e-8	1.175e-7
-0.055	-3.936e-8	1.171e-7
-0.056	-4.809e-8	1.167e-7
-0.057	-5.778e-8	1.161e-7
-0.058	-6.719e-8	1.154e-7
-0.059	-7.693e-8	1.146e-7
-0.060	-8.622e-8	1.138e-7
-0.061	-9.567e-8	1.128e-7
-0.062	-1.052e-7	1.118e-7
-0.063	-1.154e-7	1.106e-7
-0.064	-1.255e-7	1.094e-7
-0.065	-1.361e-7	1.080e-7
-0.066	-1.465e-7	1.065e-7
-0.067	-1.573e-7	1.050e-7
-0.068	-1.681e-7	1.033e-7
-0.069	-1.793e-7	1.015e-7
-0.070	-1.904e-7	9.959e-8
-0.071	-2.021e-7	9.757e-8
-0.072	-2.139e-7	9.543e-8
-0.073	-2.268e-7	9.317e-8
-0.074	-2.399e-7	9.077e-8
-0.075	-2.543e-7	8.822e-8
-0.076	-2.689e-7	8.553e-8
-0.077	-2.842e-7	8.269e-8
-0.078	-2.996e-7	7.970e-8
-0.079	-3.153e-7	7.654e-8
-0.080	-3.308e-7	7.324e-8
-0.081	-3.471e-7	6.977e-8
-0.082	-3.633e-7	6.613e-8
-0.083	-3.801e-7	6.233e-8
-0.084	-3.971e-7	5.836e-8
-0.085	-4.148e-7	5.421e-8
-0.086	-4.326e-7	4.989e-8
-0.087	-4.514e-7	4.537e-8
-0.088	-4.702e-7	4.067e-8
-0.089	-4.896e-7	3.578e-8
-0.090	-5.090e-7	3.069e-8
-0.091	-5.290e-7	2.540e-8
-0.092	-5.490e-7	1.990e-8
-0.093	-5.698e-7	1.421e-8
-0.094	-5.908e-7	8.299e-9
-0.095	-6.124e-7	2.175e-9
-0.096	-6.338e-7	-4.163e-9
-0.097	-6.550e-7	-1.071e-8
-0.098	-6.747e-7	-1.746e-8
-0.099	-6.942e-7	-2.440e-8
-0.100	-7.131e-7	-3.153e-8
-0.101	-7.326e-7	-3.886e-8
-0.102	-7.520e-7	-4.638e-8
-0.103	-7.716e-7	-5.409e-8
-0.104	-7.903e-7	-6.200e-8
-0.105	-8.088e-7	-7.009e-8
-0.106	-8.261e-7	-7.835e-8
-0.107	-8.433e-7	-8.678e-8
-0.108	-8.590e-7	-9.537e-8
-0.109	-8.741e-7	-1.041e-7
-0.110	-8.881e-7	-1.130e-7
-0.111	-9.013e-7	-1.220e-7
-0.112	-9.136e-7	-1.311e-7
-0.113	-9.258e-7	-1.404e-7
-0.114	-9.367e-7	-1.498e-7
-0.115	-9.472e-7	-1.592e-7
-0.116	-9.564e-7	-1.688e-7
-0.117	-9.647e-7	-1.784e-7
-0.118	-9.720e-7	-1.882e-7
-0.119	-9.788e-7	-1.980e-7
-0.120	-9.846e-7	-2.078e-7
-0.121	-9.900e-7	-2.177e-7
-0.122	-9.942e-7	-2.276e-7
-0.123	-9.980e-7	-2.376e-7
-0.124	-1.001e-6	-2.476e-7
-0.125	-1.004e-6	-2.577e-7
-0.126	-1.006e-6	-2.677e-7
-0.127	-1.007e-6	-2.778e-7
-0.128	-1.008e-6	-2.879e-7
-0.129	-1.009e-6	-2.980e-7
-0.130	-1.010e-6	-3.081e-7
-0.131	-1.011e-6	-3.182e-7
-0.132	-1.011e-6	-3.283e-7
-0.133	-1.012e-6	-3.384e-7
-0.134	-1.012e-6	-3.486e-7
-0.135	-1.012e-6	-3.587e-7
-0.136	-1.012e-6	-3.688e-7
-0.137	-1.012e-6	-3.789e-7
-0.138	-1.012e-6	-3.890e-7
-0.139	-1.013e-6	-3.992e-7
-0.140	-1.013e-6	-4.093e-7
-0.141	-1.014e-6	-4.194e-7
-0.142	-1.015e-6	-4.296e-7
-0.143	-1.016e-6	-4.397e-7
-0.144	-1.017e-6	-4.499e-7
-0.145	-1.019e-6	-4.601e-7
-0.146	-1.021e-6	-4.703e-7
-0.147	-1.023e-6	-4.805e-7
-0.148	-1.026e-6	-4.908e-7
-0.149	-1.029e-6	-5.011e-7
-0.150	-1.031e-6	-5.114e-7
-0.151	-1.035e-6	-5.217e-7
-0.152	-1.039e-6	-5.321e-7
-0.153	-1.044e-6	-5.426e-7
-0.154	-1.049e-6	-5.531e-7
-0.155	-1.054e-6	-5.636e-7
-0.156	-1.059e-6	-5.742e-7
-0.157	-1.065e-6	-5.848e-7
-0.158	-1.072e-6	-5.956e-7
-0.159	-1.079e-6	-6.064e-7
-0.160	-1.087e-6	-6.172e-7
-0.161	-1.095e-6	-6.282e-7
-0.162	-1.104e-6	-6.392e-7
-0.163	-1.114e-6	-6.504e-7
-0.164	-1.124e-6	-6.616e-7
-0.165	-1.134e-6	-6.729e-7
-0.166	-1.145e-6	-6.844e-7
-0.167	-1.157e-6	-6.960e-7
-0.168	-1.169e-6	-7.076e-7
-0.169	-1.182e-6	-7.195e-7
-0.170	-1.196e-6	-7.314e-7
-0.171	-1.210e-6	-7.435e-7
-0.172	-1.225e-6	-7.558e-7
-0.173	-1.240e-6	-7.682e-7
-0.174	-1.255e-6	-7.807e-7
-0.175	-1.272e-6	-7.934e-7
-0.176	-1.289e-6	-8.063e-7
-0.177	-1.308e-6	-8.194e-7
-0.178	-1.327e-6	-8.327e-7
-0.179	-1.348e-6	-8.462e-7
-0.180	-1.368e-6	-8.598e-7
-0.181	-1.390e-6	-8.737e-7
-0.182	-1.412e-6	-8.879e-7
-0.183	-1.436e-6	-9.022e-7
-0.184	-1.461e-6	-9.168e-7
-0.185	-1.487e-6	-9.317e-7
-0.186	-1.513e-6	-9.468e-7
-0.187	-1.540e-6	-9.622e-7
-0.188	-1.568e-6	-9.779e-7
-0.189	-1.597e-6	-9.939e-7
-0.190	-1.627e-6	-1.010e-6
-0.191	-1.659e-6	-1.027e-6
-0.192	-1.692e-6	-1.044e-6
-0.193	-1.727e-6	-1.061e-6
-0.194	-1.762e-6	-1.079e-6
-0.195	-1.798e-6	-1.097e-6
-0.196	-1.835e-6	-1.115e-6
-0.197	-1.873e-6	-1.134e-6
-0.198	-1.913e-6	-1.153e-6
-0.199	-1.955e-6	-1.172e-6
-0.200	-1.998e-6	-1.192e-6
-0.201	-2.042e-6	-1.213e-6
-0.202	-2.088e-6	-1.234e-6
-0.203	-2.136e-6	-1.255e-6
-0.204	-2.185e-6	-1.277e-6
-0.205	-2.235e-6	-1.299e-6
-0.206	-2.287e-6	-1.322e-6
-0.207	-2.340e-6	-1.345e-6
-0.208	-2.396e-6	-1.369e-6
-0.209	-2.454e-6	-1.394e-6
-0.210	-2.514e-6	-1.419e-6
-0.211	-2.576e-6	-1.445e-6
-0.212	-2.640e-6	-1.471e-6
-0.213	-2.706e-6	-1.498e-6
-0.214	-2.773e-6	-1.526e-6
-0.215	-2.843e-6	-1.554e-6
-0.216	-2.915e-6	-1.584e-6
-0.217	-2.990e-6	-1.613e-6
-0.218	-3.066e-6	-1.644e-6
-0.219	-3.143e-6	-1.676e-6
-0.220	-3.223e-6	-1.708e-6
-0.221	-3.305e-6	-1.741e-6
-0.222	-3.390e-6	-1.775e-6
-0.223	-3.478e-6	-1.810e-6
-0.224	-3.569e-6	-1.845e-6
-0.225	-3.662e-6	-1.882e-6
-0.226	-3.758e-6	-1.919e-6
-0.227	-3.856e-6	-1.958e-6
-0.228	-3.957e-6	-1.998e-6
-0.229	-4.061e-6	-2.038e-6
-0.230	-4.168e-6	-2.080e-6
-0.231	-4.278e-6	-2.123e-6
-0.232	-4.391e-6	-2.167e-6
-0.233	-4.507e-6	-2.212e-6
-0.234	-4.626e-6	-2.258e-6
-0.235	-4.748e-6	-2.305e-6
-0.236	-4.873e-6	-2.354e-6
-0.237	-5.002e-6	-2.404e-6
-0.238	-5.134e-6	-2.455e-6
-0.239	-5.271e-6	-2.508e-6
-0.240	-5.411e-6	-2.562e-6
-0.241	-5.555e-6	-2.618e-6
-0.242	-5.702e-6	-2.675e-6
-0.243	-5.854e-6	-2.733e-6
-0.244	-6.008e-6	-2.793e-6
-0.245	-6.166e-6	-2.855e-6
-0.246	-6.329e-6	-2.918e-6
-0.247	-6.498e-6	-2.983e-6
-0.248	-6.672e-6	-3.050e-6
-0.249	-6.852e-6	-3.119e-6
-0.250	-7.037e-6	-3.189e-6
-0.251	-7.226e-6	-3.261e-6
-0.252	-7.421e-6	-3.335e-6
-0.253	-7.622e-6	-3.412e-6
-0.254	-7.830e-6	-3.490e-6
-0.255	-8.044e-6	-3.570e-6
-0.256	-8.266e-6	-3.653e-6
-0.257	-8.494e-6	-3.738e-6
-0.258	-8.728e-6	-3.825e-6
-0.259	-8.969e-6	-3.915e-6
-0.260	-9.217e-6	-4.007e-6
-0.261	-9.473e-6	-4.102e-6
-0.262	-9.737e-6	-4.199e-6
-0.263	-1.001e-5	-4.299e-6
-0.264	-1.029e-5	-4.402e-6
-0.265	-1.058e-5	-4.508e-6
-0.266	-1.088e-5	-4.617e-6
-0.267	-1.119e-5	-4.729e-6
-0.268	-1.151e-5	-4.844e-6
-0.269	-1.184e-5	-4.962e-6
-0.270	-1.218e-5	-5.084e-6
-0.271	-1.253e-5	-5.209e-6
-0.272	-1.290e-5	-5.338e-6
-0.273	-1.328e-5	-5.471e-6
-0.274	-1.368e-5	-5.608e-6
-0.275	-1.409e-5	-5.749e-6
-0.276	-1.452e-5	-5.894e-6
-0.277	-1.496e-5	-6.044e-6
-0.278	-1.542e-5	-6.198e-6
-0.279	-1.590e-5	-6.357e-6
-0.280	-1.640e-5	-6.521e-6
-0.281	-1.692e-5	-6.690e-6
-0.282	-1.745e-5	-6.865e-6
-0.283	-1.800e-5	-7.045e-6
-0.284	-1.858e-5	-7.230e-6
-0.285	-1.918e-5	-7.422e-6
-0.286	-1.980e-5	-7.620e-6
-0.287	-2.045e-5	-7.825e-6
-0.288	-2.112e-5	-8.036e-6
-0.289	-2.182e-5	-8.254e-6
-0.290	-2.255e-5	-8.480e-6
-0.291	-2.330e-5	-8.713e-6
-0.292	-2.409e-5	-8.953e-6
-0.293	-2.490e-5	-9.202e-6
-0.294	-2.575e-5	-9.460e-6
-0.295	-2.662e-5	-9.726e-6
-0.296	-2.753e-5	-1.000e-5
-0.297	-2.846e-5	-1.029e-5
-0.298	-2.943e-5	-1.058e-5
-0.299	-3.044e-5	-1.088e-5
-0.300	-3.148e-5	-1.120e-5
-0.301	-3.257e-5	-1.153e-5
-0.302	-3.368e-5	-1.186e-5
-0.303	-3.483e-5	-1.221e-5
-0.304	-3.602e-5	-1.257e-5
-0.305	-3.724e-5	-1.294e-5
-0.306	-3.850e-5	-1.333e-5
-0.307	-3.979e-5	-1.373e-5
-0.308	-4.112e-5	-1.414e-5
-0.309	-4.248e-5	-1.456e-5
-0.310	-4.386e-5	-1.500e-5
-0.311	-4.527e-5	-1.545e-5
-0.312	-4.671e-5	-1.592e-5
-0.313	-4.818e-5	-1.640e-5
-0.314	-4.968e-5	-1.690e-5
-0.315	-5.121e-5	-1.741e-5
-0.316	-5.276e-5	-1.794e-5
-0.317	-5.432e-5	-1.848e-5
-0.318	-5.591e-5	-1.904e-5
-0.319	-5.751e-5	-1.962e-5
-0.320	-5.912e-5	-2.021e-5
-0.321	-6.075e-5	-2.081e-5
-0.322	-6.238e-5	-2.144e-5
-0.323	-6.403e-5	-2.208e-5
-0.324	-6.568e-5	-2.274e-5
-0.325	-6.733e-5	-2.341e-5
-0.326	-6.899e-5	-2.410e-5
-0.327	-7.065e-5	-2.481e-5
-0.328	-7.230e-5	-2.553e-5
-0.329	-7.395e-5	-2.627e-5
-0.330	-7.558e-5	-2.702e-5
-0.331	-7.721e-5	-2.780e-5
-0.332	-7.883e-5	-2.858e-5
-0.333	-8.044e-5	-2.939e-5
-0.334	-8.204e-5	-3.021e-5
-0.335	-8.363e-5	-3.104e-5
-0.336	-8.519e-5	-3.190e-5
-0.337	-8.674e-5	-3.276e-5
-0.338	-8.827e-5	-3.365e-5
-0.339	-8.979e-5	-3.454e-5
-0.340	-9.127e-5	-3.546e-5
-0.341	-9.274e-5	-3.639e-5
-0.342	-9.418e-5	-3.733e-5
-0.343	-9.559e-5	-3.828e-5
-0.344	-9.698e-5	-3.925e-5
-0.345	-9.835e-5	-4.024e-5
-0.346	-9.968e-5	-4.123e-5
-0.347	-1.010e-4	-4.224e-5
-0.348	-1.023e-4	-4.327e-5
-0.349	-1.035e-4	-4.430e-5
-0.350	-1.047e-4	-4.535e-5
-0.351	-1.058e-4	-4.641e-5
-0.352	-1.070e-4	-4.747e-5
-0.353	-1.081e-4	-4.856e-5
-0.354	-1.091e-4	-4.965e-5
-0.355	-1.101e-4	-5.075e-5
-0.356	-1.111e-4	-5.186e-5
-0.357	-1.120e-4	-5.298e-5
-0.358	-1.129e-4	-5.411e-5
-0.359	-1.137e-4	-5.524e-5
-0.360	-1.145e-4	-5.639e-5
-0.361	-1.152e-4	-5.754e-5
-0.362	-1.159e-4	-5.870e-5
-0.363	-1.166e-4	-5.987e-5
-0.364	-1.171e-4	-6.104e-5
-0.365	-1.177e-4	-6.221e-5
-0.366	-1.182e-4	-6.340e-5
-0.367	-1.187e-4	-6.458e-5
-0.368	-1.191e-4	-6.577e-5
-0.369	-1.194e-4	-6.697e-5
-0.370	-1.197e-4	-6.816e-5
-0.371	-1.200e-4	-6.936e-5
-0.372	-1.202e-4	-7.057e-5
-0.373	-1.203e-4	-7.177e-5
-0.374	-1.205e-4	-7.297e-5
-0.375	-1.205e-4	-7.418e-5
-0.376	-1.205e-4	-7.538e-5
-0.377	-1.205e-4	-7.659e-5
-0.378	-1.205e-4	-7.779e-5
-0.379	-1.204e-4	-7.900e-5
-0.380	-1.202e-4	-8.020e-5
-0.381	-1.201e-4	-8.140e-5
-0.382	-1.199e-4	-8.260e-5
-0.383	-1.196e-4	-8.380e-5
-0.384	-1.193e-4	-8.499e-5
-0.385	-1.190e-4	-8.618e-5
-0.386	-1.187e-4	-8.737e-5
-0.387	-1.183e-4	-8.855e-5
-0.388	-1.179e-4	-8.973e-5
-0.389	-1.175e-4	-9.090e-5
-0.390	-1.170e-4	-9.207e-5
-0.391	-1.166e-4	-9.324e-5
-0.392	-1.161e-4	-9.440e-5
-0.393	-1.156e-4	-9.556e-5
-0.394	-1.150e-4	-9.671e-5
-0.395	-1.145e-4	-9.785e-5
-0.396	-1.139e-4	-9.899e-5
-0.397	-1.133e-4	-1.001e-4
-0.398	-1.127e-4	-1.013e-4
-0.399	-1.121e-4	-1.024e-4
-0.400	-1.115e-4	-1.035e-4
-0.401	-1.109e-4	-1.046e-4
-0.402	-1.103e-4	-1.057e-4
-0.403	-1.096e-4	-1.068e-4
-0.404	-1.090e-4	-1.079e-4
-0.405	-1.083e-4	-1.090e-4
-0.406	-1.077e-4	-1.100e-4
-0.407	-1.071e-4	-1.111e-4
-0.408	-1.064e-4	-1.122e-4
-0.409	-1.058e-4	-1.132e-4
-0.410	-1.051e-4	-1.143e-4
-0.411	-1.044e-4	-1.153e-4
-0.412	-1.038e-4	-1.164e-4
-0.413	-1.031e-4	-1.174e-4
-0.414	-1.025e-4	-1.184e-4
-0.415	-1.018e-4	-1.194e-4
-0.416	-1.012e-4	-1.205e-4
-0.417	-1.005e-4	-1.215e-4
-0.418	-9.989e-5	-1.225e-4
-0.419	-9.926e-5	-1.235e-4
-0.420	-9.862e-5	-1.244e-4
-0.421	-9.800e-5	-1.254e-4
-0.422	-9.737e-5	-1.264e-4
-0.423	-9.676e-5	-1.274e-4
-0.424	-9.615e-5	-1.283e-4
-0.425	-9.554e-5	-1.293e-4
-0.426	-9.494e-5	-1.302e-4
-0.427	-9.434e-5	-1.312e-4
-0.428	-9.375e-5	-1.321e-4
-0.429	-9.317e-5	-1.330e-4
-0.430	-9.259e-5	-1.340e-4
-0.431	-9.202e-5	-1.349e-4
-0.432	-9.146e-5	-1.358e-4
-0.433	-9.091e-5	-1.367e-4
-0.434	-9.036e-5	-1.376e-4
-0.435	-8.982e-5	-1.385e-4
-0.436	-8.928e-5	-1.394e-4
-0.437	-8.875e-5	-1.403e-4
-0.438	-8.823e-5	-1.412e-4
-0.439	-8.771e-5	-1.421e-4
-0.440	-8.720e-5	-1.429e-4
-0.441	-8.669e-5	-1.438e-4
-0.442	-8.619e-5	-1.447e-4
-0.443	-8.570e-5	-1.455e-4
-0.444	-8.521e-5	-1.464e-4
-0.445	-8.473e-5	-1.472e-4
-0.446	-8.426e-5	-1.481e-4
-0.447	-8.379e-5	-1.489e-4
-0.448	-8.333e-5	-1.497e-4
-0.449	-8.288e-5	-1.506e-4
-0.450	-8.243e-5	-1.514e-4
-0.451	-8.198e-5	-1.522e-4
-0.452	-8.155e-5	-1.530e-4
-0.453	-8.112e-5	-1.538e-4
-0.454	-8.069e-5	-1.546e-4
-0.455	-8.027e-5	-1.554e-4
-0.456	-7.986e-5	-1.562e-4
-0.457	-7.945e-5	-1.570e-4
-0.458	-7.904e-5	-1.578e-4
-0.459	-7.864e-5	-1.586e-4
-0.460	-7.825e-5	-1.594e-4
-0.461	-7.786e-5	-1.602e-4
-0.462	-7.748e-5	-1.609e-4
-0.463	-7.710e-5	-1.617e-4
-0.464	-7.673e-5	-1.625e-4
-0.465	-7.636e-5	-1.632e-4
-0.466	-7.600e-5	-1.640e-4
-0.467	-7.565e-5	-1.648e-4
-0.468	-7.530e-5	-1.655e-4
-0.469	-7.495e-5	-1.663e-4
-0.470	-7.461e-5	-1.670e-4
-0.471	-7.428e-5	-1.677e-4
-0.472	-7.394e-5	-1.685e-4
-0.473	-7.361e-5	-1.692e-4
-0.474	-7.329e-5	-1.700e-4
-0.475	-7.297e-5	-1.707e-4
-0.476	-7.265e-5	-1.714e-4
-0.477	-7.234e-5	-1.721e-4
-0.478	-7.203e-5	-1.729e-4
-0.479	-7.172e-5	-1.736e-4
-0.480	-7.142e-5	-1.743e-4
-0.481	-7.112e-5	-1.750e-4
-0.482	-7.082e-5	-1.757e-4
-0.483	-7.053e-5	-1.764e-4
-0.484	-7.024e-5	-1.771e-4
-0.485	-6.996e-5	-1.778e-4
-0.486	-6.968e-5	-1.785e-4
-0.487	-6.941e-5	-1.792e-4
-0.488	-6.914e-5	-1.799e-4
-0.489	-6.887e-5	-1.806e-4
-0.490	-6.860e-5	-1.813e-4
-0.491	-6.834e-5	-1.820e-4
-0.492	-6.808e-5	-1.826e-4
-0.493	-6.782e-5	-1.833e-4
-0.494	-6.757e-5	-1.840e-4
-0.495	-6.732e-5	-1.847e-4
-0.496	-6.707e-5	-1.853e-4
-0.497	-6.683e-5	-1.860e-4
-0.498	-6.659e-5	-1.867e-4
-0.499	-6.635e-5	-1.873e-4
-0.500	-6.611e-5	-1.880e-4
-0.501	-6.588e-5	-1.886e-4
-0.502	-6.565e-5	-1.893e-4
-0.503	-6.542e-5	-1.900e-4
-0.504	-6.520e-5	-1.906e-4
-0.505	-6.497e-5	-1.913e-4
-0.506	-6.475e-5	-1.919e-4
-0.507	-6.454e-5	-1.926e-4
-0.508	-6.432e-5	-1.932e-4
-0.509	-6.411e-5	-1.938e-4
-0.510	-6.390e-5	-1.945e-4
-0.511	-6.369e-5	-1.951e-4
-0.512	-6.348e-5	-1.957e-4
-0.513	-6.327e-5	-1.964e-4
-0.514	-6.307e-5	-1.970e-4
-0.515	-6.287e-5	-1.976e-4
-0.516	-6.267e-5	-1.983e-4
-0.517	-6.247e-5	-1.989e-4
-0.518	-6.228e-5	-1.995e-4
-0.519	-6.209e-5	-2.001e-4
-0.520	-6.190e-5	-2.008e-4
-0.521	-6.171e-5	-2.014e-4
-0.522	-6.153e-5	-2.020e-4
-0.523	-6.134e-5	-2.026e-4
-0.524	-6.116e-5	-2.032e-4
-0.525	-6.099e-5	-2.038e-4
-0.526	-6.081e-5	-2.044e-4
-0.527	-6.063e-5	-2.050e-4
-0.528	-6.046e-5	-2.056e-4
-0.529	-6.028e-5	-2.062e-4
-0.530	-6.011e-5	-2.068e-4
-0.531	-5.994e-5	-2.074e-4
-0.532	-5.977e-5	-2.080e-4
-0.533	-5.961e-5	-2.086e-4
-0.534	-5.944e-5	-2.092e-4
-0.535	-5.928e-5	-2.098e-4
-0.536	-5.913e-5	-2.104e-4
-0.537	-5.897e-5	-2.110e-4
-0.538	-5.881e-5	-2.116e-4
-0.539	-5.865e-5	-2.122e-4
-0.540	-5.850e-5	-2.128e-4
-0.541	-5.834e-5	-2.134e-4
-0.542	-5.819e-5	-2.139e-4
-0.543	-5.804e-5	-2.145e-4
-0.544	-5.789e-5	-2.151e-4
-0.545	-5.774e-5	-2.157e-4
-0.546	-5.759e-5	-2.162e-4
-0.547	-5.745e-5	-2.168e-4
-0.548	-5.730e-5	-2.174e-4
-0.549	-5.716e-5	-2.180e-4
-0.550	-5.702e-5	-2.185e-4
-0.551	-5.688e-5	-2.191e-4
-0.552	-5.674e-5	-2.197e-4
-0.553	-5.660e-5	-2.202e-4
-0.554	-5.646e-5	-2.208e-4
-0.555	-5.633e-5	-2.214e-4
-0.556	-5.619e-5	-2.219e-4
-0.557	-5.606e-5	-2.225e-4
-0.558	-5.593e-5	-2.230e-4
-0.559	-5.579e-5	-2.236e-4
-0.560	-5.566e-5	-2.242e-4
-0.561	-5.553e-5	-2.247e-4
-0.562	-5.540e-5	-2.253e-4
-0.563	-5.527e-5	-2.258e-4
-0.564	-5.514e-5	-2.264e-4
-0.565	-5.502e-5	-2.269e-4
-0.566	-5.489e-5	-2.275e-4
-0.567	-5.477e-5	-2.280e-4
-0.568	-5.465e-5	-2.286e-4
-0.569	-5.453e-5	-2.291e-4
-0.570	-5.441e-5	-2.297e-4
-0.571	-5.429e-5	-2.302e-4
-0.572	-5.417e-5	-2.307e-4
-0.573	-5.405e-5	-2.313e-4
-0.574	-5.393e-5	-2.318e-4
-0.575	-5.382e-5	-2.324e-4
-0.576	-5.370e-5	-2.329e-4
-0.577	-5.359e-5	-2.334e-4
-0.578	-5.348e-5	-2.340e-4
-0.579	-5.337e-5	-2.345e-4
-0.580	-5.326e-5	-2.350e-4
-0.581	-5.315e-5	-2.356e-4
-0.582	-5.304e-5	-2.361e-4
-0.583	-5.293e-5	-2.366e-4
-0.584	-5.282e-5	-2.372e-4
-0.585	-5.271e-5	-2.377e-4
-0.586	-5.261e-5	-2.382e-4
-0.587	-5.250e-5	-2.387e-4
-0.588	-5.240e-5	-2.393e-4
-0.589	-5.229e-5	-2.398e-4
-0.590	-5.219e-5	-2.403e-4
-0.591	-5.209e-5	-2.408e-4
-0.592	-5.198e-5	-2.413e-4
-0.593	-5.188e-5	-2.419e-4
-0.594	-5.178e-5	-2.424e-4
-0.595	-5.168e-5	-2.429e-4
-0.596	-5.158e-5	-2.434e-4
-0.597	-5.148e-5	-2.439e-4
-0.598	-5.139e-5	-2.444e-4
-0.599	-5.129e-5	-2.450e-4
-0.600	-5.105e-5	-5.105e-7
-0.599	-5.084e-5	-1.019e-6
-0.598	-5.065e-5	-1.525e-6
-0.597	-5.048e-5	-2.030e-6
-0.596	-5.034e-5	-2.534e-6
-0.595	-5.022e-5	-3.036e-6
-0.594	-5.010e-5	-3.537e-6
-0.593	-4.998e-5	-4.037e-6
-0.592	-4.987e-5	-4.535e-6
-0.591	-4.975e-5	-5.033e-6
-0.590	-4.964e-5	-5.529e-6
-0.589	-4.953e-5	-6.025e-6
-0.588	-4.942e-5	-6.519e-6
-0.587	-4.932e-5	-7.012e-6
-0.586	-4.921e-5	-7.504e-6
-0.585	-4.911e-5	-7.995e-6
-0.584	-4.900e-5	-8.485e-6
-0.583	-4.890e-5	-8.974e-6
-0.582	-4.880e-5	-9.462e-6
-0.581	-4.870e-5	-9.949e-6
-0.580	-4.860e-5	-1.044e-5
-0.579	-4.850e-5	-1.092e-5
-0.578	-4.840e-5	-1.140e-5
-0.577	-4.830e-5	-1.189e-5
-0.576	-4.821e-5	-1.237e-5
-0.575	-4.811e-5	-1.285e-5
-0.574	-4.802e-5	-1.333e-5
-0.573	-4.792e-5	-1.381e-5
-0.572	-4.783e-5	-1.429e-5
-0.571	-4.773e-5	-1.477e-5
-0.570	-4.764e-5	-1.524e-5
-0.569	-4.755e-5	-1.572e-5
-0.568	-4.746e-5	-1.619e-5
-0.567	-4.737e-5	-1.667e-5
-0.566	-4.728e-5	-1.714e-5
-0.565	-4.719e-5	-1.761e-5
-0.564	-4.710e-5	-1.808e-5
-0.563	-4.701e-5	-1.855e-5
-0.562	-4.692e-5	-1.902e-5
-0.561	-4.684e-5	-1.949e-5
-0.560	-4.675e-5	-1.996e-5
-0.559	-4.666e-5	-2.042e-5
-0.558	-4.658e-5	-2.089e-5
-0.557	-4.649e-5	-2.135e-5
-0.556	-4.641e-5	-2.182e-5
-0.555	-4.633e-5	-2.228e-5
-0.554	-4.624e-5	-2.274e-5
-0.553	-4.616e-5	-2.321e-5
-0.552	-4.608e-5	-2.367e-5
-0.551	-4.599e-5	-2.413e-5
-0.550	-4.591e-5	-2.458e-5
-0.549	-4.583e-5	-2.504e-5
-0.548	-4.575e-5	-2.550e-5
-0.547	-4.567e-5	-2.596e-5
-0.546	-4.559e-5	-2.641e-5
-0.545	-4.551e-5	-2.687e-5
-0.544	-4.543e-5	-2.732e-5
-0.543	-4.535e-5	-2.778e-5
-0.542	-4.527e-5	-2.823e-5
-0.541	-4.520e-5	-2.868e-5
-0.540	-4.512e-5	-2.913e-5
-0.539	-4.504e-5	-2.958e-5
-0.538	-4.496e-5	-3.003e-5
-0.537	-4.488e-5	-3.048e-5
-0.536	-4.481e-5	-3.093e-5
-0.535	-4.473e-5	-3.138e-5
-0.534	-4.465e-5	-3.182e-5
-0.533	-4.457e-5	-3.227e-5
-0.532	-4.450e-5	-3.271e-5
-0.531	-4.442e-5	-3.316e-5
-0.530	-4.434e-5	-3.360e-5
-0.529	-4.427e-5	-3.404e-5
-0.528	-4.419e-5	-3.449e-5
-0.527	-4.412e-5	-3.493e-5
-0.526	-4.404e-5	-3.537e-5
-0.525	-4.396e-5	-3.581e-5
-0.524	-4.389e-5	-3.625e-5
-0.523	-4.381e-5	-3.668e-5
-0.522	-4.374e-5	-3.712e-5
-0.521	-4.367e-5	-3.756e-5
-0.520	-4.359e-5	-3.799e-5
-0.519	-4.352e-5	-3.843e-5
-0.518	-4.345e-5	-3.886e-5
-0.517	-4.338e-5	-3.930e-5
-0.516	-4.330e-5	-3.973e-5
-0.515	-4.322e-5	-4.016e-5
-0.514	-4.315e-5	-4.059e-5
-0.513	-4.307e-5	-4.102e-5
-0.512	-4.300e-5	-4.145e-5
-0.511	-4.292e-5	-4.188e-5
-0.510	-4.284e-5	-4.231e-5
-0.509	-4.277e-5	-4.274e-5
-0.508	-4.269e-5	-4.317e-5
-0.507	-4.262e-5	-4.359e-5
-0.506	-4.254e-5	-4.402e-5
-0.505	-4.246e-5	-4.444e-5
-0.504	-4.238e-5	-4.487e-5
-0.503	-4.231e-5	-4.529e-5
-0.502	-4.223e-5	-4.571e-5
-0.501	-4.215e-5	-4.613e-5
-0.500	-4.207e-5	-4.655e-5
-0.499	-4.199e-5	-4.697e-5
-0.498	-4.191e-5	-4.739e-5
-0.497	-4.183e-5	-4.781e-5
-0.496	-4.175e-5	-4.823e-5
-0.495	-4.166e-5	-4.865e-5
-0.494	-4.158e-5	-4.906e-5
-0.493	-4.150e-5	-4.948e-5
-0.492	-4.142e-5	-4.989e-5
-0.491	-4.133e-5	-5.030e-5
-0.490	-4.125e-5	-5.072e-5
-0.489	-4.116e-5	-5.113e-5
-0.488	-4.108e-5	-5.154e-5
-0.487	-4.099e-5	-5.195e-5
-0.486	-4.090e-5	-5.236e-5
-0.485	-4.081e-5	-5.277e-5
-0.484	-4.072e-5	-5.317e-5
-0.483	-4.063e-5	-5.358e-5
-0.482	-4.053e-5	-5.398e-5
-0.481	-4.044e-5	-5.439e-5
-0.480	-4.034e-5	-5.479e-5
-0.479	-4.025e-5	-5.520e-5
-0.478	-4.015e-5	-5.560e-5
-0.477	-4.005e-5	-5.600e-5
-0.476	-3.995e-5	-5.640e-5
-0.475	-3.984e-5	-5.680e-5
-0.474	-3.974e-5	-5.719e-5
-0.473	-3.963e-5	-5.759e-5
-0.472	-3.952e-5	-5.798e-5
-0.471	-3.941e-5	-5.838e-5
-0.470	-3.930e-5	-5.877e-5
-0.469	-3.919e-5	-5.916e-5
-0.468	-3.907e-5	-5.955e-5
-0.467	-3.895e-5	-5.994e-5
-0.466	-3.884e-5	-6.033e-5
-0.465	-3.871e-5	-6.072e-5
-0.464	-3.859e-5	-6.110e-5
-0.463	-3.846e-5	-6.149e-5
-0.462	-3.833e-5	-6.187e-5
-0.461	-3.820e-5	-6.225e-5
-0.460	-3.806e-5	-6.264e-5
-0.459	-3.793e-5	-6.301e-5
-0.458	-3.778e-5	-6.339e-5
-0.457	-3.764e-5	-6.377e-5
-0.456	-3.750e-5	-6.414e-5
-0.455	-3.734e-5	-6.452e-5
-0.454	-3.719e-5	-6.489e-5
-0.453	-3.703e-5	-6.526e-5
-0.452	-3.687e-5	-6.563e-5
-0.451	-3.670e-5	-6.600e-5
-0.450	-3.653e-5	-6.636e-5
-0.449	-3.636e-5	-6.672e-5
-0.448	-3.618e-5	-6.709e-5
-0.447	-3.599e-5	-6.745e-5
-0.446	-3.580e-5	-6.780e-5
-0.445	-3.561e-5	-6.816e-5
-0.444	-3.541e-5	-6.851e-5
-0.443	-3.521e-5	-6.887e-5
-0.442	-3.500e-5	-6.922e-5
-0.441	-3.478e-5	-6.956e-5
-0.440	-3.456e-5	-6.991e-5
-0.439	-3.433e-5	-7.025e-5
-0.438	-3.410e-5	-7.059e-5
-0.437	-3.386e-5	-7.093e-5
-0.436	-3.361e-5	-7.127e-5
-0.435	-3.336e-5	-7.160e-5
-0.434	-3.310e-5	-7.193e-5
-0.433	-3.283e-5	-7.226e-5
-0.432	-3.255e-5	-7.259e-5
-0.431	-3.226e-5	-7.291e-5
-0.430	-3.197e-5	-7.323e-5
-0.429	-3.166e-5	-7.355e-5
-0.428	-3.135e-5	-7.386e-5
-0.427	-3.103e-5	-7.417e-5
-0.426	-3.070e-5	-7.448e-5
-0.425	-3.035e-5	-7.478e-5
-0.424	-3.000e-5	-7.508e-5
-0.423	-2.964e-5	-7.538e-5
-0.422	-2.927e-5	-7.567e-5
-0.421	-2.889e-5	-7.596e-5
-0.420	-2.849e-5	-7.624e-5
-0.419	-2.809e-5	-7.652e-5
-0.418	-2.767e-5	-7.680e-5
-0.417	-2.724e-5	-7.707e-5
-0.416	-2.679e-5	-7.734e-5
-0.415	-2.633e-5	-7.760e-5
-0.414	-2.585e-5	-7.786e-5
-0.413	-2.537e-5	-7.812e-5
-0.412	-2.486e-5	-7.836e-5
-0.411	-2.434e-5	-7.861e-5
-0.410	-2.380e-5	-7.885e-5
-0.409	-2.325e-5	-7.908e-5
-0.408	-2.268e-5	-7.931e-5
-0.407	-2.209e-5	-7.953e-5
-0.406	-2.149e-5	-7.974e-5
-0.405	-2.087e-5	-7.995e-5
-0.404	-2.023e-5	-8.015e-5
-0.403	-1.958e-5	-8.035e-5
-0.402	-1.890e-5	-8.054e-5
-0.401	-1.820e-5	-8.072e-5
-0.400	-1.749e-5	-8.089e-5
-0.399	-1.675e-5	-8.106e-5
-0.398	-1.599e-5	-8.122e-5
-0.397	-1.521e-5	-8.137e-5
-0.396	-1.441e-5	-8.152e-5
-0.395	-1.359e-5	-8.165e-5
-0.394	-1.275e-5	-8.178e-5
-0.393	-1.189e-5	-8.190e-5
-0.392	-1.101e-5	-8.201e-5
-0.391	-1.010e-5	-8.211e-5
-0.390	-9.172e-6	-8.220e-5
-0.389	-8.218e-6	-8.229e-5
-0.388	-7.241e-6	-8.236e-5
-0.387	-6.244e-6	-8.242e-5
-0.386	-5.222e-6	-8.247e-5
-0.385	-4.179e-6	-8.251e-5
-0.384	-3.111e-6	-8.254e-5
-0.383	-2.022e-6	-8.257e-5
-0.382	-9.120e-7	-8.257e-5
-0.381	2.185e-7	-8.257e-5
-0.380	1.370e-6	-8.256e-5
-0.379	2.540e-6	-8.253e-5
-0.378	3.731e-6	-8.250e-5
-0.377	4.938e-6	-8.245e-5
-0.376	6.162e-6	-8.238e-5
-0.375	7.402e-6	-8.231e-5
-0.374	8.659e-6	-8.222e-5
-0.373	9.930e-6	-8.212e-5
-0.372	1.122e-5	-8.201e-5
-0.371	1.251e-5	-8.189e-5
-0.370	1.383e-5	-8.175e-5
-0.369	1.515e-5	-8.160e-5
-0.368	1.648e-5	-8.143e-5
-0.367	1.781e-5	-8.125e-5
-0.366	1.915e-5	-8.106e-5
-0.365	2.050e-5	-8.086e-5
-0.364	2.185e-5	-8.064e-5
-0.363	2.320e-5	-8.041e-5
-0.362	2.455e-5	-8.016e-5
-0.361	2.590e-5	-7.990e-5
-0.360	2.725e-5	-7.963e-5
-0.359	2.859e-5	-7.934e-5
-0.358	2.993e-5	-7.905e-5
-0.357	3.126e-5	-7.873e-5
-0.356	3.257e-5	-7.841e-5
-0.355	3.388e-5	-7.807e-5
-0.354	3.516e-5	-7.772e-5
-0.353	3.644e-5	-7.735e-5
-0.352	3.769e-5	-7.698e-5
-0.351	3.893e-5	-7.659e-5
-0.350	4.015e-5	-7.618e-5
-0.349	4.134e-5	-7.577e-5
-0.348	4.251e-5	-7.535e-5
-0.347	4.365e-5	-7.491e-5
-0.346	4.477e-5	-7.446e-5
-0.345	4.587e-5	-7.400e-5
-0.344	4.693e-5	-7.353e-5
-0.343	4.796e-5	-7.305e-5
-0.342	4.896e-5	-7.256e-5
-0.341	4.993e-5	-7.207e-5
-0.340	5.087e-5	-7.156e-5
-0.339	5.177e-5	-7.104e-5
-0.338	5.264e-5	-7.051e-5
-0.337	5.348e-5	-6.998e-5
-0.336	5.427e-5	-6.944e-5
-0.335	5.504e-5	-6.888e-5
-0.334	5.577e-5	-6.833e-5
-0.333	5.647e-5	-6.776e-5
-0.332	5.714e-5	-6.719e-5
-0.331	5.776e-5	-6.661e-5
-0.330	5.835e-5	-6.603e-5
-0.329	5.890e-5	-6.544e-5
-0.328	5.942e-5	-6.485e-5
-0.327	5.990e-5	-6.425e-5
-0.326	6.035e-5	-6.364e-5
-0.325	6.076e-5	-6.304e-5
-0.324	6.114e-5	-6.243e-5
-0.323	6.149e-5	-6.181e-5
-0.322	6.181e-5	-6.119e-5
-0.321	6.209e-5	-6.057e-5
-0.320	6.235e-5	-5.995e-5
-0.319	6.258e-5	-5.932e-5
-0.318	6.277e-5	-5.869e-5
-0.317	6.294e-5	-5.806e-5
-0.316	6.309e-5	-5.743e-5
-0.315	6.320e-5	-5.680e-5
-0.314	6.330e-5	-5.617e-5
-0.313	6.337e-5	-5.554e-5
-0.312	6.341e-5	-5.490e-5
-0.311	6.343e-5	-5.427e-5
-0.310	6.342e-5	-5.363e-5
-0.309	6.340e-5	-5.300e-5
-0.308	6.337e-5	-5.236e-5
-0.307	6.332e-5	-5.173e-5
-0.306	6.324e-5	-5.110e-5
-0.305	6.315e-5	-5.047e-5
-0.304	6.303e-5	-4.984e-5
-0.303	6.291e-5	-4.921e-5
-0.302	6.276e-5	-4.858e-5
-0.301	6.261e-5	-4.795e-5
-0.300	6.245e-5	-4.733e-5
-0.299	6.227e-5	-4.671e-5
-0.298	6.209e-5	-4.609e-5
-0.297	6.189e-5	-4.547e-5
-0.296	6.168e-5	-4.485e-5
-0.295	6.147e-5	-4.424e-5
-0.294	6.125e-5	-4.362e-5
-0.293	6.102e-5	-4.301e-5
-0.292	6.079e-5	-4.241e-5
-0.291	6.055e-5	-4.180e-5
-0.290	6.031e-5	-4.120e-5
-0.289	6.006e-5	-4.060e-5
-0.288	5.981e-5	-4.000e-5
-0.287	5.956e-5	-3.940e-5
-0.286	5.930e-5	-3.881e-5
-0.285	5.904e-5	-3.822e-5
-0.284	5.878e-5	-3.763e-5
-0.283	5.851e-5	-3.705e-5
-0.282	5.825e-5	-3.646e-5
-0.281	5.798e-5	-3.588e-5
-0.280	5.772e-5	-3.531e-5
-0.279	5.745e-5	-3.473e-5
-0.278	5.719e-5	-3.416e-5
-0.277	5.693e-5	-3.359e-5
-0.276	5.666e-5	-3.302e-5
-0.275	5.640e-5	-3.246e-5
-0.274	5.614e-5	-3.190e-5
-0.273	5.588e-5	-3.134e-5
-0.272	5.562e-5	-3.078e-5
-0.271	5.536e-5	-3.023e-5
-0.270	5.511e-5	-2.968e-5
-0.269	5.485e-5	-2.913e-5
-0.268	5.460e-5	-2.858e-5
-0.267	5.435e-5	-2.804e-5
-0.266	5.410e-5	-2.750e-5
-0.265	5.385e-5	-2.696e-5
-0.264	5.361e-5	-2.643e-5
-0.263	5.337e-5	-2.589e-5
-0.262	5.313e-5	-2.536e-5
-0.261	5.290e-5	-2.483e-5
-0.260	5.267e-5	-2.431e-5
-0.259	5.244e-5	-2.378e-5
-0.258	5.221e-5	-2.326e-5
-0.257	5.198e-5	-2.274e-5
-0.256	5.175e-5	-2.222e-5
-0.255	5.153e-5	-2.171e-5
-0.254	5.132e-5	-2.119e-5
-0.253	5.110e-5	-2.068e-5
-0.252	5.089e-5	-2.017e-5
-0.251	5.068e-5	-1.967e-5
-0.250	5.047e-5	-1.916e-5
-0.249	5.027e-5	-1.866e-5
-0.248	5.006e-5	-1.816e-5
-0.247	4.985e-5	-1.766e-5
-0.246	4.964e-5	-1.716e-5
-0.245	4.944e-5	-1.667e-5
-0.244	4.924e-5	-1.618e-5
-0.243	4.904e-5	-1.569e-5
-0.242	4.884e-5	-1.520e-5
-0.241	4.864e-5	-1.471e-5
-0.240	4.844e-5	-1.423e-5
-0.239	4.825e-5	-1.374e-5
-0.238	4.805e-5	-1.326e-5
-0.237	4.786e-5	-1.279e-5
-0.236	4.766e-5	-1.231e-5
-0.235	4.747e-5	-1.183e-5
-0.234	4.727e-5	-1.136e-5
-0.233	4.708e-5	-1.089e-5
-0.232	4.688e-5	-1.042e-5
-0.231	4.669e-5	-9.955e-6
-0.230	4.649e-5	-9.490e-6
-0.229	4.630e-5	-9.027e-6
-0.228	4.611e-5	-8.566e-6
-0.227	4.591e-5	-8.107e-6
-0.226	4.572e-5	-7.650e-6
-0.225	4.553e-5	-7.194e-6
-0.224	4.533e-5	-6.741e-6
-0.223	4.514e-5	-6.290e-6
-0.222	4.495e-5	-5.840e-6
-0.221	4.475e-5	-5.393e-6
-0.220	4.456e-5	-4.947e-6
-0.219	4.436e-5	-4.503e-6
-0.218	4.417e-5	-4.062e-6
-0.217	4.397e-5	-3.622e-6
-0.216	4.377e-5	-3.184e-6
-0.215	4.358e-5	-2.749e-6
-0.214	4.338e-5	-2.315e-6
-0.213	4.318e-5	-1.883e-6
-0.212	4.298e-5	-1.453e-6
-0.211	4.279e-5	-1.025e-6
-0.210	4.259e-5	-5.994e-7
-0.209	4.239e-5	-1.756e-7
-0.208	4.219e-5	2.463e-7
-0.207	4.199e-5	6.662e-7
-0.206	4.179e-5	1.084e-6
-0.205	4.159e-5	1.500e-6
-0.204	4.139e-5	1.914e-6
-0.203	4.119e-5	2.326e-6
-0.202	4.099e-5	2.736e-6
-0.201	4.079e-5	3.143e-6
-0.200	4.059e-5	3.549e-6
-0.199	4.039e-5	3.953e-6
-0.198	4.019e-5	4.355e-6
-0.197	3.999e-5	4.755e-6
-0.196	3.979e-5	5.153e-6
-0.195	3.959e-5	5.549e-6
-0.194	3.939e-5	5.942e-6
-0.193	3.919e-5	6.334e-6
-0.192	3.898e-5	6.724e-6
-0.191	3.878e-5	7.112e-6
-0.190	3.858e-5	7.498e-6
-0.189	3.839e-5	7.882e-6
-0.188	3.819e-5	8.264e-6
-0.187	3.799e-5	8.644e-6
-0.186	3.779e-5	9.021e-6
-0.185	3.760e-5	9.397e-6
-0.184	3.740e-5	9.771e-6
-0.183	3.721e-5	1.014e-5
-0.182	3.702e-5	1.051e-5
-0.181	3.682e-5	1.088e-5
-0.180	3.663e-5	1.125e-5
-0.179	3.644e-5	1.161e-5
-0.178	3.625e-5	1.198e-5
-0.177	3.606e-5	1.234e-5
-0.176	3.587e-5	1.269e-5
-0.175	3.568e-5	1.305e-5
-0.174	3.549e-5	1.341e-5
-0.173	3.531e-5	1.376e-5
-0.172	3.513e-5	1.411e-5
-0.171	3.494e-5	1.446e-5
-0.170	3.476e-5	1.481e-5
-0.169	3.458e-5	1.515e-5
-0.168	3.440e-5	1.550e-5
-0.167	3.422e-5	1.584e-5
-0.166	3.404e-5	1.618e-5
-0.165	3.386e-5	1.652e-5
-0.164	3.368e-5	1.686e-5
-0.163	3.350e-5	1.719e-5
-0.162	3.333e-5	1.752e-5
-0.161	3.316e-5	1.786e-5
-0.160	3.299e-5	1.819e-5
-0.159	3.282e-5	1.851e-5
-0.158	3.265e-5	1.884e-5
-0.157	3.248e-5	1.916e-5
-0.156	3.231e-5	1.949e-5
-0.155	3.215e-5	1.981e-5
-0.154	3.198e-5	2.013e-5
-0.153	3.182e-5	2.045e-5
-0.152	3.166e-5	2.076e-5
-0.151	3.150e-5	2.108e-5
-0.150	3.134e-5	2.139e-5
-0.149	3.118e-5	2.170e-5
-0.148	3.102e-5	2.201e-5
-0.147	3.087e-5	2.232e-5
-0.146	3.072e-5	2.263e-5
-0.145	3.057e-5	2.294e-5
-0.144	3.042e-5	2.324e-5
-0.143	3.027e-5	2.354e-5
-0.142	3.012e-5	2.384e-5
-0.141	2.998e-5	2.414e-5
-0.140	2.984e-5	2.444e-5
-0.139	2.970e-5	2.474e-5
-0.138	2.956e-5	2.503e-5
-0.137	2.942e-5	2.533e-5
-0.136	2.929e-5	2.562e-5
-0.135	2.916e-5	2.591e-5
-0.134	2.903e-5	2.620e-5
-0.133	2.890e-5	2.649e-5
-0.132	2.877e-5	2.678e-5
-0.131	2.864e-5	2.707e-5
-0.130	2.852e-5	2.735e-5
-0.129	2.840e-5	2.764e-5
-0.128	2.828e-5	2.792e-5
-0.127	2.816e-5	2.820e-5
-0.126	2.805e-5	2.848e-5
-0.125	2.793e-5	2.876e-5
-0.124	2.782e-5	2.904e-5
-0.123	2.771e-5	2.932e-5
-0.122	2.760e-5	2.959e-5
-0.121	2.749e-5	2.987e-5
-0.120	2.738e-5	3.014e-5
-0.119	2.728e-5	3.041e-5
-0.118	2.718e-5	3.068e-5
-0.117	2.707e-5	3.096e-5
-0.116	2.698e-5	3.123e-5
-0.115	2.688e-5	3.149e-5
-0.114	2.678e-5	3.176e-5
-0.113	2.668e-5	3.203e-5
-0.112	2.659e-5	3.229e-5
-0.111	2.649e-5	3.256e-5
-0.110	2.640e-5	3.282e-5
-0.109	2.631e-5	3.309e-5
-0.108	2.622e-5	3.335e-5
-0.107	2.613e-5	3.361e-5
-0.106	2.603e-5	3.387e-5
-0.105	2.594e-5	3.413e-5
-0.104	2.585e-5	3.439e-5
-0.103	2.576e-5	3.465e-5
-0.102	2.567e-5	3.490e-5
-0.101	2.558e-5	3.516e-5
-0.100	2.549e-5	3.541e-5
-0.099	2.540e-5	3.567e-5
-0.098	2.531e-5	3.592e-5
-0.097	2.522e-5	3.617e-5
-0.096	2.513e-5	3.642e-5
-0.095	2.504e-5	3.667e-5
-0.094	2.494e-5	3.692e-5
-0.093	2.485e-5	3.717e-5
-0.092	2.475e-5	3.742e-5
-0.091	2.466e-5	3.767e-5
-0.090	2.456e-5	3.791e-5
-0.089	2.446e-5	3.816e-5
-0.088	2.437e-5	3.840e-5
-0.087	2.427e-5	3.864e-5
-0.086	2.417e-5	3.888e-5
-0.085	2.408e-5	3.913e-5
-0.084	2.398e-5	3.937e-5
-0.083	2.388e-5	3.960e-5
-0.082	2.378e-5	3.984e-5
-0.081	2.368e-5	4.008e-5
-0.080	2.359e-5	4.031e-5
-0.079	2.349e-5	4.055e-5
-0.078	2.339e-5	4.078e-5
-0.077	2.329e-5	4.102e-5
-0.076	2.319e-5	4.125e-5
-0.075	2.309e-5	4.148e-5
-0.074	2.299e-5	4.171e-5
-0.073	2.290e-5	4.194e-5
-0.072	2.280e-5	4.217e-5
-0.071	2.271e-5	4.239e-5
-0.070	2.261e-5	4.262e-5
-0.069	2.252e-5	4.284e-5
-0.068	2.242e-5	4.307e-5
-0.067	2.233e-5	4.329e-5
-0.066	2.223e-5	4.351e-5
-0.065	2.214e-5	4.374e-5
-0.064	2.205e-5	4.396e-5
-0.063	2.196e-5	4.418e-5
-0.062	2.187e-5	4.439e-5
-0.061	2.178e-5	4.461e-5
-0.060	2.169e-5	4.483e-5
-0.059	2.160e-5	4.504e-5
-0.058	2.151e-5	4.526e-5
-0.057	2.143e-5	4.547e-5
-0.056	2.134e-5	4.569e-5
-0.055	2.125e-5	4.590e-5
-0.054	2.117e-5	4.611e-5
-0.053	2.108e-5	4.632e-5
-0.052	2.100e-5	4.653e-5
-0.051	2.092e-5	4.674e-5
-0.050	2.083e-5	4.695e-5
-0.049	2.075e-5	4.716e-5
-0.048	2.067e-5	4.736e-5
-0.047	2.059e-5	4.757e-5
-0.046	2.051e-5	4.778e-5
-0.045	2.043e-5	4.798e-5
-0.044	2.035e-5	4.818e-5
-0.043	2.027e-5	4.839e-5
-0.042	2.019e-5	4.859e-5
-0.041	2.012e-5	4.879e-5
-0.040	2.004e-5	4.899e-5
-0.039	1.996e-5	4.919e-5
-0.038	1.989e-5	4.939e-5
-0.037	1.982e-5	4.959e-5
-0.036	1.974e-5	4.978e-5
-0.035	1.967e-5	4.998e-5
-0.034	1.959e-5	5.018e-5
-0.033	1.952e-5	5.037e-5
-0.032	1.946e-5	5.057e-5
-0.031	1.939e-5	5.076e-5
-0.030	1.932e-5	5.095e-5
-0.029	1.925e-5	5.115e-5
-0.028	1.919e-5	5.134e-5
-0.027	1.912e-5	5.153e-5
-0.026	1.905e-5	5.172e-5
-0.025	1.898e-5	5.191e-5
-0.024	1.891e-5	5.210e-5
-0.023	1.885e-5	5.229e-5
-0.022	1.878e-5	5.247e-5
-0.021	1.871e-5	5.266e-5
-0.020	1.865e-5	5.285e-5
-0.019	1.858e-5	5.303e-5
-0.018	1.852e-5	5.322e-5
-0.017	1.846e-5	5.340e-5
-0.016	1.839e-5	5.359e-5
-0.015	1.833e-5	5.377e-5
-0.014	1.827e-5	5.395e-5
-0.013	1.820e-5	5.414e-5
-0.012	1.814e-5	5.432e-5
-0.011	1.808e-5	5.450e-5
-0.010	1.802e-5	5.468e-5
-0.009	1.796e-5	5.486e-5
-0.008	1.790e-5	5.504e-5
-0.007	1.784e-5	5.521e-5
-0.006	1.778e-5	5.539e-5
-0.005	1.772e-5	5.557e-5
-0.004	1.767e-5	5.575e-5
-0.003	1.761e-5	5.592e-5
-0.002	1.755e-5	5.610e-5
-0.001	1.750e-5	5.627e-5
-0.000	1.713e-5	1.713e-7
-0.001	1.681e-5	3.395e-7
-0.002	1.654e-5	5.049e-7
-0.003	1.633e-5	6.682e-7
-0.004	1.618e-5	8.300e-7
-0.005	1.608e-5	9.908e-7
-0.006	1.598e-5	1.151e-6
-0.007	1.588e-5	1.309e-6
-0.008	1.579e-5	1.467e-6
-0.009	1.570e-5	1.624e-6
-0.010	1.561e-5	1.780e-6
-0.011	1.552e-5	1.936e-6
-0.012	1.544e-5	2.090e-6
-0.013	1.536e-5	2.244e-6
-0.014	1.528e-5	2.396e-6
-0.015	1.520e-5	2.548e-6
-0.016	1.512e-5	2.700e-6
-0.017	1.505e-5	2.850e-6
-0.018	1.498e-5	3.000e-6
-0.019	1.490e-5	3.149e-6
-0.020	1.483e-5	3.297e-6
-0.021	1.476e-5	3.445e-6
-0.022	1.469e-5	3.592e-6
-0.023	1.462e-5	3.738e-6
-0.024	1.456e-5	3.884e-6
-0.025	1.449e-5	4.028e-6
-0.026	1.443e-5	4.173e-6
-0.027	1.436e-5	4.316e-6
-0.028	1.430e-5	4.459e-6
-0.029	1.423e-5	4.602e-6
-0.030	1.417e-5	4.743e-6
-0.031	1.411e-5	4.884e-6
-0.032	1.404e-5	5.025e-6
-0.033	1.398e-5	5.165e-6
-0.034	1.392e-5	5.304e-6
-0.035	1.386e-5	5.442e-6
-0.036	1.380e-5	5.581e-6
-0.037	1.374e-5	5.718e-6
-0.038	1.368e-5	5.855e-6
-0.039	1.362e-5	5.991e-6
-0.040	1.357e-5	6.127e-6
-0.041	1.351e-5	6.262e-6
-0.042	1.345e-5	6.396e-6
-0.043	1.339e-5	6.530e-6
-0.044	1.333e-5	6.664e-6
-0.045	1.328e-5	6.796e-6
-0.046	1.322e-5	6.928e-6
-0.047	1.316e-5	7.060e-6
-0.048	1.311e-5	7.191e-6
-0.049	1.305e-5	7.322e-6
-0.050	1.299e-5	7.452e-6
-0.051	1.294e-5	7.581e-6
-0.052	1.288e-5	7.710e-6
-0.053	1.283e-5	7.838e-6
-0.054	1.277e-5	7.966e-6
-0.055	1.271e-5	8.093e-6
-0.056	1.266e-5	8.219e-6
-0.057	1.260e-5	8.346e-6
-0.058	1.255e-5	8.471e-6
-0.059	1.249e-5	8.596e-6
-0.060	1.244e-5	8.720e-6
-0.061	1.238e-5	8.844e-6
-0.062	1.233e-5	8.967e-6
-0.063	1.227e-5	9.090e-6
-0.064	1.221e-5	9.212e-6
-0.065	1.216e-5	9.334e-6
-0.066	1.210e-5	9.455e-6
-0.067	1.204e-5	9.575e-6
-0.068	1.199e-5	9.695e-6
-0.069	1.193e-5	9.814e-6
-0.070	1.187e-5	9.933e-6
-0.071	1.181e-5	1.005e-5
-0.072	1.176e-5	1.017e-5
-0.073	1.170e-5	1.029e-5
-0.074	1.164e-5	1.040e-5
-0.075	1.158e-5	1.052e-5
-0.076	1.152e-5	1.063e-5
-0.077	1.146e-5	1.075e-5
-0.078	1.140e-5	1.086e-5
-0.079	1.134e-5	1.098e-5
-0.080	1.127e-5	1.109e-5
-0.081	1.121e-5	1.120e-5
-0.082	1.115e-5	1.131e-5
-0.083	1.109e-5	1.142e-5
-0.084	1.102e-5	1.153e-5
-0.085	1.096e-5	1.164e-5
-0.086	1.090e-5	1.175e-5
-0.087	1.083e-5	1.186e-5
-0.088	1.076e-5	1.197e-5
-0.089	1.070e-5	1.207e-5
-0.090	1.063e-5	1.218e-5
-0.091	1.057e-5	1.229e-5
-0.092	1.050e-5	1.239e-5
-0.093	1.043e-5	1.250e-5
-0.094	1.037e-5	1.260e-5
-0.095	1.030e-5	1.270e-5
-0.096	1.023e-5	1.280e-5
-0.097	1.017e-5	1.291e-5
-0.098	1.010e-5	1.301e-5
-0.099	1.003e-5	1.311e-5
-0.100	9.969e-6	1.321e-5
-0.101	9.905e-6	1.331e-5
-0.102	9.841e-6	1.340e-5
-0.103	9.778e-6	1.350e-5
-0.104	9.716e-6	1.360e-5
-0.105	9.655e-6	1.370e-5
-0.106	9.597e-6	1.379e-5
-0.107	9.540e-6	1.389e-5
-0.108	9.483e-6	1.398e-5
-0.109	9.427e-6	1.408e-5
-0.110	9.372e-6	1.417e-5
-0.111	9.318e-6	1.426e-5
-0.112	9.266e-6	1.436e-5
-0.113	9.215e-6	1.445e-5
-0.114	9.165e-6	1.454e-5
-0.115	9.116e-6	1.463e-5
-0.116	9.069e-6	1.472e-5
-0.117	9.023e-6	1.481e-5
-0.118	8.979e-6	1.490e-5
-0.119	8.936e-6	1.499e-5
-0.120	8.894e-6	1.508e-5
-0.121	8.853e-6	1.517e-5
-0.122	8.812e-6	1.526e-5
-0.123	8.773e-6	1.534e-5
-0.124	8.735e-6	1.543e-5
-0.125	8.698e-6	1.552e-5
-0.126	8.663e-6	1.561e-5
-0.127	8.628e-6	1.569e-5
-0.128	8.593e-6	1.578e-5
-0.129	8.558e-6	1.586e-5
-0.130	8.523e-6	1.595e-5
-0.131	8.488e-6	1.603e-5
-0.132	8.454e-6	1.612e-5
-0.133	8.421e-6	1.620e-5
-0.134	8.388e-6	1.629e-5
-0.135	8.356e-6	1.637e-5
-0.136	8.324e-6	1.645e-5
-0.137	8.291e-6	1.654e-5
-0.138	8.259e-6	1.662e-5
-0.139	8.226e-6	1.670e-5
-0.140	8.192e-6	1.678e-5
-0.141	8.159e-6	1.686e-5
-0.142	8.126e-6	1.695e-5
-0.143	8.093e-6	1.703e-5
-0.144	8.060e-6	1.711e-5
-0.145	8.027e-6	1.719e-5
-0.146	7.992e-6	1.727e-5
-0.147	7.958e-6	1.735e-5
-0.148	7.923e-6	1.743e-5
-0.149	7.888e-6	1.750e-5
-0.150	7.854e-6	1.758e-5
-0.151	7.818e-6	1.766e-5
-0.152	7.783e-6	1.774e-5
-0.153	7.747e-6	1.782e-5
-0.154	7.711e-6	1.789e-5
-0.155	7.673e-6	1.797e-5
-0.156	7.635e-6	1.805e-5
-0.157	7.596e-6	1.812e-5
-0.158	7.556e-6	1.820e-5
-0.159	7.515e-6	1.827e-5
-0.160	7.474e-6	1.835e-5
-0.161	7.433e-6	1.842e-5
-0.162	7.392e-6	1.850e-5
-0.163	7.351e-6	1.857e-5
-0.164	7.309e-6	1.864e-5
-0.165	7.267e-6	1.872e-5
-0.166	7.223e-6	1.879e-5
-0.167	7.179e-6	1.886e-5
-0.168	7.134e-6	1.893e-5
-0.169	7.089e-6	1.900e-5
-0.170	7.043e-6	1.907e-5
-0.171	6.996e-6	1.914e-5
-0.172	6.949e-6	1.921e-5
-0.173	6.901e-6	1.928e-5
-0.174	6.851e-6	1.935e-5
-0.175	6.801e-6	1.942e-5
-0.176	6.751e-6	1.948e-5
-0.177	6.700e-6	1.955e-5
-0.178	6.648e-6	1.962e-5
-0.179	6.596e-6	1.968e-5
-0.180	6.542e-6	1.975e-5
-0.181	6.487e-6	1.981e-5
-0.182	6.431e-6	1.988e-5
-0.183	6.375e-6	1.994e-5
-0.184	6.318e-6	2.001e-5
-0.185	6.259e-6	2.007e-5
-0.186	6.200e-6	2.013e-5
-0.187	6.139e-6	2.019e-5
-0.188	6.078e-6	2.025e-5
-0.189	6.016e-6	2.031e-5
-0.190	5.953e-6	2.037e-5
-0.191	5.888e-6	2.043e-5
-0.192	5.822e-6	2.049e-5
-0.193	5.755e-6	2.055e-5
-0.194	5.687e-6	2.060e-5
-0.195	5.618e-6	2.066e-5
-0.196	5.548e-6	2.072e-5
-0.197	5.475e-6	2.077e-5
-0.198	5.401e-6	2.082e-5
-0.199	5.326e-6	2.088e-5
-0.200	5.249e-6	2.093e-5
-0.201	5.171e-6	2.098e-5
-0.202	5.091e-6	2.103e-5
-0.203	5.009e-6	2.108e-5
-0.204	4.926e-6	2.113e-5
-0.205	4.842e-6	2.118e-5
-0.206	4.756e-6	2.123e-5
-0.207	4.668e-6	2.127e-5
-0.208	4.578e-6	2.132e-5
-0.209	4.486e-6	2.137e-5
-0.210	4.393e-6	2.141e-5
-0.211	4.297e-6	2.145e-5
-0.212	4.199e-6	2.149e-5
-0.213	4.099e-6	2.154e-5
-0.214	3.997e-6	2.158e-5
-0.215	3.894e-6	2.161e-5
-0.216	3.791e-6	2.165e-5
-0.217	3.686e-6	2.169e-5
-0.218	3.578e-6	2.172e-5
-0.219	3.467e-6	2.176e-5
-0.220	3.353e-6	2.179e-5
-0.221	3.236e-6	2.183e-5
-0.222	3.116e-6	2.186e-5
-0.223	2.994e-6	2.189e-5
-0.224	2.869e-6	2.191e-5
-0.225	2.741e-6	2.194e-5
-0.226	2.611e-6	2.197e-5
-0.227	2.479e-6	2.199e-5
-0.228	2.343e-6	2.202e-5
-0.229	2.205e-6	2.204e-5
-0.230	2.064e-6	2.206e-5
-0.231	1.921e-6	2.208e-5
-0.232	1.776e-6	2.210e-5
-0.233	1.627e-6	2.211e-5
-0.234	1.475e-6	2.213e-5
-0.235	1.319e-6	2.214e-5
-0.236	1.159e-6	2.215e-5
-0.237	9.953e-7	2.216e-5
-0.238	8.282e-7	2.217e-5
-0.239	6.580e-7	2.218e-5
-0.240	4.843e-7	2.218e-5
-0.241	3.062e-7	2.218e-5
-0.242	1.237e-7	2.219e-5
-0.243	-6.351e-8	2.219e-5
-0.244	-2.551e-7	2.218e-5
-0.245	-4.507e-7	2.218e-5
-0.246	-6.503e-7	2.217e-5
-0.247	-8.542e-7	2.216e-5
-0.248	-1.063e-6	2.215e-5
-0.249	-1.276e-6	2.214e-5
-0.250	-1.494e-6	2.213e-5
-0.251	-1.717e-6	2.211e-5
-0.252	-1.945e-6	2.209e-5
-0.253	-2.177e-6	2.207e-5
-0.254	-2.416e-6	2.204e-5
-0.255	-2.662e-6	2.202e-5
-0.256	-2.915e-6	2.199e-5
-0.257	-3.174e-6	2.196e-5
-0.258	-3.439e-6	2.192e-5
-0.259	-3.711e-6	2.188e-5
-0.260	-3.990e-6	2.184e-5
-0.261	-4.278e-6	2.180e-5
-0.262	-4.574e-6	2.176e-5
-0.263	-4.879e-6	2.171e-5
-0.264	-5.191e-6	2.165e-5
-0.265	-5.512e-6	2.160e-5
-0.266	-5.841e-6	2.154e-5
-0.267	-6.180e-6	2.148e-5
-0.268	-6.530e-6	2.141e-5
-0.269	-6.891e-6	2.134e-5
-0.270	-7.263e-6	2.127e-5
-0.271	-7.648e-6	2.120e-5
-0.272	-8.044e-6	2.112e-5
-0.273	-8.454e-6	2.103e-5
-0.274	-8.877e-6	2.094e-5
-0.275	-9.312e-6	2.085e-5
-0.276	-9.762e-6	2.075e-5
-0.277	-1.023e-5	2.065e-5
-0.278	-1.070e-5	2.054e-5
-0.279	-1.120e-5	2.043e-5
-0.280	-1.171e-5	2.031e-5
-0.281	-1.223e-5	2.019e-5
-0.282	-1.278e-5	2.006e-5
-0.283	-1.334e-5	1.993e-5
-0.284	-1.393e-5	1.979e-5
-0.285	-1.454e-5	1.964e-5
-0.286	-1.517e-5	1.949e-5
-0.287	-1.582e-5	1.933e-5
-0.288	-1.650e-5	1.917e-5
-0.289	-1.720e-5	1.900e-5
-0.290	-1.792e-5	1.882e-5
-0.291	-1.867e-5	1.863e-5
-0.292	-1.944e-5	1.844e-5
-0.293	-2.024e-5	1.824e-5
-0.294	-2.107e-5	1.802e-5
-0.295	-2.192e-5	1.781e-5
-0.296	-2.281e-5	1.758e-5
-0.297	-2.373e-5	1.734e-5
-0.298	-2.468e-5	1.709e-5
-0.299	-2.565e-5	1.684e-5
-0.300	-2.666e-5	1.657e-5
-0.301	-2.769e-5	1.629e-5
-0.302	-2.875e-5	1.601e-5
-0.303	-2.985e-5	1.571e-5
-0.304	-3.098e-5	1.540e-5
-0.305	-3.215e-5	1.508e-5
-0.306	-3.335e-5	1.474e-5
-0.307	-3.458e-5	1.440e-5
-0.308	-3.583e-5	1.404e-5
-0.309	-3.712e-5	1.367e-5
-0.310	-3.844e-5	1.328e-5
-0.311	-3.978e-5	1.288e-5
-0.312	-4.115e-5	1.247e-5
-0.313	-4.254e-5	1.205e-5
-0.314	-4.395e-5	1.161e-5
-0.315	-4.539e-5	1.115e-5
-0.316	-4.685e-5	1.069e-5
-0.317	-4.834e-5	1.020e-5
-0.318	-4.984e-5	9.704e-6
-0.319	-5.136e-5	9.191e-6
-0.320	-5.290e-5	8.662e-6
-0.321	-5.445e-5	8.117e-6
-0.322	-5.601e-5	7.557e-6
-0.323	-5.758e-5	6.981e-6
-0.324	-5.916e-5	6.390e-6
-0.325	-6.075e-5	5.782e-6
-0.326	-6.234e-5	5.159e-6
-0.327	-6.393e-5	4.519e-6
-0.328	-6.553e-5	3.864e-6
-0.329	-6.712e-5	3.193e-6
-0.330	-6.871e-5	2.506e-6
-0.331	-7.029e-5	1.803e-6
-0.332	-7.187e-5	1.084e-6
-0.333	-7.344e-5	3.498e-7
-0.334	-7.500e-5	-4.002e-7
-0.335	-7.654e-5	-1.166e-6
-0.336	-7.807e-5	-1.946e-6
-0.337	-7.959e-5	-2.742e-6
-0.338	-8.109e-5	-3.553e-6
-0.339	-8.258e-5	-4.379e-6
-0.340	-8.405e-5	-5.219e-6
-0.341	-8.549e-5	-6.074e-6
-0.342	-8.692e-5	-6.943e-6
-0.343	-8.831e-5	-7.826e-6
-0.344	-8.968e-5	-8.723e-6
-0.345	-9.101e-5	-9.633e-6
-0.346	-9.232e-5	-1.056e-5
-0.347	-9.360e-5	-1.149e-5
-0.348	-9.486e-5	-1.244e-5
-0.349	-9.607e-5	-1.340e-5
-0.350	-9.725e-5	-1.437e-5
-0.351	-9.839e-5	-1.536e-5
-0.352	-9.950e-5	-1.635e-5
-0.353	-1.006e-4	-1.736e-5
-0.354	-1.016e-4	-1.837e-5
-0.355	-1.026e-4	-1.940e-5
-0.356	-1.035e-4	-2.044e-5
-0.357	-1.044e-4	-2.148e-5
-0.358	-1.053e-4	-2.253e-5
-0.359	-1.061e-4	-2.359e-5
-0.360	-1.068e-4	-2.466e-5
-0.361	-1.075e-4	-2.574e-5
-0.362	-1.082e-4	-2.682e-5
-0.363	-1.088e-4	-2.791e-5
-0.364	-1.094e-4	-2.900e-5
-0.365	-1.099e-4	-3.010e-5
-0.366	-1.104e-4	-3.121e-5
-0.367	-1.108e-4	-3.231e-5
-0.368	-1.112e-4	-3.343e-5
-0.369	-1.116e-4	-3.454e-5
-0.370	-1.118e-4	-3.566e-5
-0.371	-1.121e-4	-3.678e-5
-0.372	-1.123e-4	-3.790e-5
-0.373	-1.124e-4	-3.903e-5
-0.374	-1.125e-4	-4.015e-5
-0.375	-1.126e-4	-4.128e-5
-0.376	-1.126e-4	-4.240e-5
-0.377	-1.125e-4	-4.353e-5
-0.378	-1.125e-4	-4.465e-5
-0.379	-1.124e-4	-4.578e-5
-0.380	-1.122e-4	-4.690e-5
-0.381	-1.120e-4	-4.802e-5
-0.382	-1.118e-4	-4.914e-5
-0.383	-1.116e-4	-5.025e-5
-0.384	-1.113e-4	-5.137e-5
-0.385	-1.110e-4	-5.248e-5
-0.386	-1.106e-4	-5.358e-5
-0.387	-1.102e-4	-5.468e-5
-0.388	-1.098e-4	-5.578e-5
-0.389	-1.094e-4	-5.688e-5
-0.390	-1.090e-4	-5.797e-5
-0.391	-1.085e-4	-5.905e-5
-0.392	-1.080e-4	-6.013e-5
-0.393	-1.075e-4	-6.121e-5
-0.394	-1.070e-4	-6.228e-5
-0.395	-1.065e-4	-6.334e-5
-0.396	-1.060e-4	-6.440e-5
-0.397	-1.054e-4	-6.546e-5
-0.398	-1.048e-4	-6.651e-5
-0.399	-1.042e-4	-6.755e-5
-0.400	-1.037e-4	-6.858e-5
-0.401	-1.031e-4	-6.962e-5
-0.402	-1.024e-4	-7.064e-5
-0.403	-1.018e-4	-7.166e-5
-0.404	-1.012e-4	-7.267e-5
-0.405	-1.006e-4	-7.368e-5
-0.406	-9.998e-5	-7.468e-5
-0.407	-9.935e-5	-7.567e-5
-0.408	-9.872e-5	-7.666e-5
-0.409	-9.810e-5	-7.764e-5
-0.410	-9.747e-5	-7.861e-5
-0.411	-9.685e-5	-7.958e-5
-0.412	-9.622e-5	-8.054e-5
-0.413	-9.559e-5	-8.150e-5
-0.414	-9.497e-5	-8.245e-5
-0.415	-9.434e-5	-8.339e-5
-0.416	-9.373e-5	-8.433e-5
-0.417	-9.311e-5	-8.526e-5
-0.418	-9.250e-5	-8.619e-5
-0.419	-9.190e-5	-8.710e-5
-0.420	-9.130e-5	-8.802e-5
-0.421	-9.071e-5	-8.892e-5
-0.422	-9.012e-5	-8.983e-5
-0.423	-8.953e-5	-9.072e-5
-0.424	-8.895e-5	-9.161e-5
-0.425	-8.837e-5	-9.249e-5
-0.426	-8.780e-5	-9.337e-5
-0.427	-8.724e-5	-9.424e-5
-0.428	-8.668e-5	-9.511e-5
-0.429	-8.612e-5	-9.597e-5
-0.430	-8.557e-5	-9.683e-5
-0.431	-8.503e-5	-9.768e-5
-0.432	-8.450e-5	-9.852e-5
-0.433	-8.397e-5	-9.936e-5
-0.434	-8.345e-5	-1.002e-4
-0.435	-8.293e-5	-1.010e-4
-0.436	-8.242e-5	-1.019e-4
-0.437	-8.192e-5	-1.027e-4
-0.438	-8.142e-5	-1.035e-4
-0.439	-8.093e-5	-1.043e-4
-0.440	-8.044e-5	-1.051e-4
-0.441	-7.996e-5	-1.059e-4
-0.442	-7.949e-5	-1.067e-4
-0.443	-7.902e-5	-1.075e-4
-0.444	-7.855e-5	-1.083e-4
-0.445	-7.810e-5	-1.090e-4
-0.446	-7.765e-5	-1.098e-4
-0.447	-7.721e-5	-1.106e-4
-0.448	-7.677e-5	-1.114e-4
-0.449	-7.634e-5	-1.121e-4
-0.450	-7.591e-5	-1.129e-4
-0.451	-7.550e-5	-1.136e-4
-0.452	-7.509e-5	-1.144e-4
-0.453	-7.468e-5	-1.151e-4
-0.454	-7.428e-5	-1.159e-4
-0.455	-7.388e-5	-1.166e-4
-0.456	-7.349e-5	-1.174e-4
-0.457	-7.310e-5	-1.181e-4
-0.458	-7.272e-5	-1.188e-4
-0.459	-7.235e-5	-1.195e-4
-0.460	-7.197e-5	-1.203e-4
-0.461	-7.160e-5	-1.210e-4
-0.462	-7.124e-5	-1.217e-4
-0.463	-7.088e-5	-1.224e-4
-0.464	-7.053e-5	-1.231e-4
-0.465	-7.018e-5	-1.238e-4
-0.466	-6.983e-5	-1.245e-4
-0.467	-6.950e-5	-1.252e-4
-0.468	-6.916e-5	-1.259e-4
-0.469	-6.884e-5	-1.266e-4
-0.470	-6.851e-5	-1.273e-4
-0.471	-6.819e-5	-1.279e-4
-0.472	-6.787e-5	-1.286e-4
-0.473	-6.756e-5	-1.293e-4
-0.474	-6.725e-5	-1.300e-4
-0.475	-6.695e-5	-1.306e-4
-0.476	-6.665e-5	-1.313e-4
-0.477	-6.635e-5	-1.320e-4
-0.478	-6.606e-5	-1.326e-4
-0.479	-6.577e-5	-1.333e-4
-0.480	-6.548e-5	-1.339e-4
-0.481	-6.520e-5	-1.346e-4
-0.482	-6.493e-5	-1.352e-4
-0.483	-6.465e-5	-1.359e-4
-0.484	-6.438e-5	-1.365e-4
-0.485	-6.412e-5	-1.372e-4
-0.486	-6.385e-5	-1.378e-4
-0.487	-6.359e-5	-1.384e-4
-0.488	-6.333e-5	-1.391e-4
-0.489	-6.307e-5	-1.397e-4
-0.490	-6.282e-5	-1.403e-4
-0.491	-6.257e-5	-1.410e-4
-0.492	-6.233e-5	-1.416e-4
-0.493	-6.208e-5	-1.422e-4
-0.494	-6.185e-5	-1.428e-4
-0.495	-6.161e-5	-1.434e-4
-0.496	-6.138e-5	-1.441e-4
-0.497	-6.115e-5	-1.447e-4
-0.498	-6.092e-5	-1.453e-4
-0.499	-6.070e-5	-1.459e-4
-0.500	-6.048e-5	-1.465e-4
-0.501	-6.026e-5	-1.471e-4
-0.502	-6.004e-5	-1.477e-4
-0.503	-5.983e-5	-1.483e-4
-0.504	-5.961e-5	-1.489e-4
-0.505	-5.941e-5	-1.495e-4
-0.506	-5.920e-5	-1.501e-4
-0.507	-5.900e-5	-1.507e-4
-0.508	-5.880e-5	-1.513e-4
-0.509	-5.860e-5	-1.518e-4
-0.510	-5.840e-5	-1.524e-4
-0.511	-5.821e-5	-1.530e-4
-0.512	-5.801e-5	-1.536e-4
-0.513	-5.782e-5	-1.542e-4
-0.514	-5.763e-5	-1.547e-4
-0.515	-5.745e-5	-1.553e-4
-0.516	-5.726e-5	-1.559e-4
-0.517	-5.708e-5	-1.565e-4
-0.518	-5.690e-5	-1.570e-4
-0.519	-5.673e-5	-1.576e-4
-0.520	-5.655e-5	-1.582e-4
-0.521	-5.637e-5	-1.587e-4
-0.522	-5.620e-5	-1.593e-4
-0.523	-5.603e-5	-1.598e-4
-0.524	-5.586e-5	-1.604e-4
-0.525	-5.569e-5	-1.610e-4
-0.526	-5.552e-5	-1.615e-4
-0.527	-5.536e-5	-1.621e-4
-0.528	-5.519e-5	-1.626e-4
-0.529	-5.503e-5	-1.632e-4
-0.530	-5.487e-5	-1.637e-4
-0.531	-5.471e-5	-1.643e-4
-0.532	-5.456e-5	-1.648e-4
-0.533	-5.440e-5	-1.654e-4
-0.534	-5.425e-5	-1.659e-4
-0.535	-5.410e-5	-1.664e-4
-0.536	-5.395e-5	-1.670e-4
-0.537	-5.380e-5	-1.675e-4
-0.538	-5.365e-5	-1.681e-4
-0.539	-5.351e-5	-1.686e-4
-0.540	-5.336e-5	-1.691e-4
-0.541	-5.322e-5	-1.697e-4
-0.542	-5.308e-5	-1.702e-4
-0.543	-5.294e-5	-1.707e-4
-0.544	-5.280e-5	-1.712e-4
-0.545	-5.266e-5	-1.718e-4
-0.546	-5.253e-5	-1.723e-4
-0.547	-5.239e-5	-1.728e-4
-0.548	-5.226e-5	-1.733e-4
-0.549	-5.213e-5	-1.739e-4
-0.550	-5.200e-5	-1.744e-4
-0.551	-5.187e-5	-1.749e-4
-0.552	-5.174e-5	-1.754e-4
-0.553	-5.161e-5	-1.759e-4
-0.554	-5.148e-5	-1.765e-4
-0.555	-5.136e-5	-1.770e-4
-0.556	-5.123e-5	-1.775e-4
-0.557	-5.111e-5	-1.780e-4
-0.558	-5.099e-5	-1.785e-4
-0.559	-5.086e-5	-1.790e-4
-0.560	-5.074e-5	-1.795e-4
-0.561	-5.063e-5	-1.800e-4
-0.562	-5.051e-5	-1.805e-4
-0.563	-5.039e-5	-1.810e-4
-0.564	-5.028e-5	-1.815e-4
-0.565	-5.016e-5	-1.820e-4
-0.566	-5.005e-5	-1.825e-4
-0.567	-4.994e-5	-1.830e-4
-0.568	-4.982e-5	-1.835e-4
-0.569	-4.971e-5	-1.840e-4
-0.570	-4.960e-5	-1.845e-4
-0.571	-4.949e-5	-1.850e-4
-0.572	-4.939e-5	-1.855e-4
-0.573	-4.928e-5	-1.860e-4
-0.574	-4.917e-5	-1.865e-4
-0.575	-4.907e-5	-1.870e-4
-0.576	-4.896e-5	-1.875e-4
-0.577	-4.886e-5	-1.880e-4
-0.578	-4.876e-5	-1.885e-4
-0.579	-4.866e-5	-1.889e-4
-0.580	-4.855e-5	-1.894e-4
-0.581	-4.845e-5	-1.899e-4
-0.582	-4.835e-5	-1.904e-4
-0.583	-4.825e-5	-1.909e-4
-0.584	-4.815e-5	-1.914e-4
-0.585	-4.806e-5	-1.918e-4
-0.586	-4.796e-5	-1.923e-4
-0.587	-4.786e-5	-1.928e-4
-0.588	-4.777e-5	-1.933e-4
-0.589	-4.767e-5	-1.938e-4
-0.590	-4.758e-5	-1.942e-4
-0.591	-4.748e-5	-1.947e-4
-0.592	-4.739e-5	-1.952e-4
-0.593	-4.730e-5	-1.956e-4
-0.594	-4.720e-5	-1.961e-4
-0.595	-4.711e-5	-1.966e-4
-0.596	-4.702e-5	-1.971e-4
-0.597	-4.693e-5	-1.975e-4
-0.598	-4.685e-5	-1.980e-4
-0.599	-4.676e-5	-1.985e-4
-0.600	-4.653e-5	-4.653e-7
-0.599	-4.633e-5	-9.286e-7
-0.598	-4.616e-5	-1.390e-6
-0.597	-4.600e-5	-1.850e-6
-0.596	-4.587e-5	-2.309e-6
-0.595	-4.576e-5	-2.767e-6
-0.594	-4.566e-5	-3.223e-6
-0.593	-4.555e-5	-3.679e-6
-0.592	-4.544e-5	-4.133e-6
-0.591	-4.534e-5	-4.586e-6
-0.590	-4.524e-5	-5.039e-6
-0.589	-4.514e-5	-5.490e-6
-0.588	-4.504e-5	-5.941e-6
-0.587	-4.494e-5	-6.390e-6
-0.586	-4.484e-5	-6.838e-6
-0.585	-4.475e-5	-7.286e-6
-0.584	-4.465e-5	-7.732e-6
-0.583	-4.456e-5	-8.178e-6
-0.582	-4.447e-5	-8.623e-6
-0.581	-4.438e-5	-9.066e-6
-0.580	-4.429e-5	-9.509e-6
-0.579	-4.420e-5	-9.951e-6
-0.578	-4.411e-5	-1.039e-5
-0.577	-4.402e-5	-1.083e-5
-0.576	-4.393e-5	-1.127e-5
-0.575	-4.384e-5	-1.171e-5
-0.574	-4.376e-5	-1.215e-5
-0.573	-4.368e-5	-1.258e-5
-0.572	-4.360e-5	-1.302e-5
-0.571	-4.352e-5	-1.346e-5
-0.570	-4.344e-5	-1.389e-5
-0.569	-4.335e-5	-1.432e-5
-0.568	-4.327e-5	-1.476e-5
-0.567	-4.319e-5	-1.519e-5
-0.566	-4.311e-5	-1.562e-5
-0.565	-4.303e-5	-1.605e-5
-0.564	-4.295e-5	-1.648e-5
-0.563	-4.287e-5	-1.691e-5
-0.562	-4.279e-5	-1.734e-5
-0.561	-4.271e-5	-1.776e-5
-0.560	-4.263e-5	-1.819e-5
-0.559	-4.256e-5	-1.861e-5
-0.558	-4.248e-5	-1.904e-5
-0.557	-4.240e-5	-1.946e-5
-0.556	-4.233e-5	-1.989e-5
-0.555	-4.225e-5	-2.031e-5
-0.554	-4.218e-5	-2.073e-5
-0.553	-4.210e-5	-2.115e-5
-0.552	-4.203e-5	-2.157e-5
-0.551	-4.195e-5	-2.199e-5
-0.550	-4.188e-5	-2.241e-5
-0.549	-4.180e-5	-2.283e-5
-0.548	-4.173e-5	-2.325e-5
-0.547	-4.166e-5	-2.366e-5
-0.546	-4.159e-5	-2.408e-5
-0.545	-4.152e-5	-2.449e-5
-0.544	-4.144e-5	-2.491e-5
-0.543	-4.137e-5	-2.532e-5
-0.542	-4.130e-5	-2.573e-5
-0.541	-4.123e-5	-2.615e-5
-0.540	-4.116e-5	-2.656e-5
-0.539	-4.109e-5	-2.697e-5
-0.538	-4.102e-5	-2.738e-5
-0.537	-4.095e-5	-2.779e-5
-0.536	-4.088e-5	-2.820e-5
-0.535	-4.081e-5	-2.861e-5
-0.534	-4.074e-5	-2.901e-5
-0.533	-4.067e-5	-2.942e-5
-0.532	-4.060e-5	-2.983e-5
-0.531	-4.053e-5	-3.023e-5
-0.530	-4.046e-5	-3.064e-5
-0.529	-4.039e-5	-3.104e-5
-0.528	-4.033e-5	-3.144e-5
-0.527	-4.026e-5	-3.185e-5
-0.526	-4.019e-5	-3.225e-5
-0.525	-4.012e-5	-3.265e-5
-0.524	-4.005e-5	-3.305e-5
-0.523	-3.998e-5	-3.345e-5
-0.522	-3.991e-5	-3.385e-5
-0.521	-3.984e-5	-3.425e-5
-0.520	-3.977e-5	-3.464e-5
-0.519	-3.970e-5	-3.504e-5
-0.518	-3.964e-5	-3.544e-5
-0.517	-3.957e-5	-3.583e-5
-0.516	-3.950e-5	-3.623e-5
-0.515	-3.943e-5	-3.662e-5
-0.514	-3.936e-5	-3.702e-5
-0.513	-3.929e-5	-3.741e-5
-0.512	-3.922e-5	-3.780e-5
-0.511	-3.915e-5	-3.819e-5
-0.510	-3.908e-5	-3.858e-5
-0.509	-3.901e-5	-3.897e-5
-0.508	-3.894e-5	-3.936e-5
-0.507	-3.887e-5	-3.975e-5
-0.506	-3.880e-5	-4.014e-5
-0.505	-3.873e-5	-4.053e-5
-0.504	-3.866e-5	-4.091e-5
-0.503	-3.859e-5	-4.130e-5
-0.502	-3.852e-5	-4.169e-5
-0.501	-3.845e-5	-4.207e-5
-0.500	-3.838e-5	-4.245e-5
-0.499	-3.830e-5	-4.284e-5
-0.498	-3.823e-5	-4.322e-5
-0.497	-3.816e-5	-4.360e-5
-0.496	-3.808e-5	-4.398e-5
-0.495	-3.801e-5	-4.436e-5
-0.494	-3.793e-5	-4.474e-5
-0.493	-3.785e-5	-4.512e-5
-0.492	-3.778e-5	-4.550e-5
-0.491	-3.770e-5	-4.587e-5
-0.490	-3.762e-5	-4.625e-5
-0.489	-3.755e-5	-4.663e-5
-0.488	-3.747e-5	-4.700e-5
-0.487	-3.738e-5	-4.737e-5
-0.486	-3.730e-5	-4.775e-5
-0.485	-3.722e-5	-4.812e-5
-0.484	-3.714e-5	-4.849e-5
-0.483	-3.705e-5	-4.886e-5
-0.482	-3.696e-5	-4.923e-5
-0.481	-3.688e-5	-4.960e-5
-0.480	-3.679e-5	-4.997e-5
-0.479	-3.670e-5	-5.034e-5
-0.478	-3.661e-5	-5.070e-5
-0.477	-3.651e-5	-5.107e-5
-0.476	-3.642e-5	-5.143e-5
-0.475	-3.632e-5	-5.179e-5
-0.474	-3.623e-5	-5.216e-5
-0.473	-3.613e-5	-5.252e-5
-0.472	-3.603e-5	-5.288e-5
-0.471	-3.593e-5	-5.324e-5
-0.470	-3.582e-5	-5.360e-5
-0.469	-3.572e-5	-5.395e-5
-0.468	-3.561e-5	-5.431e-5
-0.467	-3.550e-5	-5.466e-5
-0.466	-3.538e-5	-5.502e-5
-0.465	-3.527e-5	-5.537e-5
-0.464	-3.515e-5	-5.572e-5
-0.463	-3.503e-5	-5.607e-5
-0.462	-3.491e-5	-5.642e-5
-0.461	-3.478e-5	-5.677e-5
-0.460	-3.465e-5	-5.711e-5
-0.459	-3.452e-5	-5.746e-5
-0.458	-3.439e-5	-5.780e-5
-0.457	-3.425e-5	-5.815e-5
-0.456	-3.411e-5	-5.849e-5
-0.455	-3.397e-5	-5.883e-5
-0.454	-3.382e-5	-5.917e-5
-0.453	-3.367e-5	-5.950e-5
-0.452	-3.352e-5	-5.984e-5
-0.451	-3.336e-5	-6.017e-5
-0.450	-3.320e-5	-6.050e-5
-0.449	-3.303e-5	-6.083e-5
-0.448	-3.286e-5	-6.116e-5
-0.447	-3.269e-5	-6.149e-5
-0.446	-3.250e-5	-6.181e-5
-0.445	-3.232e-5	-6.214e-5
-0.444	-3.213e-5	-6.246e-5
-0.443	-3.193e-5	-6.278e-5
-0.442	-3.173e-5	-6.309e-5
-0.441	-3.152e-5	-6.341e-5
-0.440	-3.130e-5	-6.372e-5
-0.439	-3.109e-5	-6.403e-5
-0.438	-3.086e-5	-6.434e-5
-0.437	-3.063e-5	-6.465e-5
-0.436	-3.039e-5	-6.495e-5
-0.435	-3.015e-5	-6.525e-5
-0.434	-2.990e-5	-6.555e-5
-0.433	-2.964e-5	-6.585e-5
-0.432	-2.937e-5	-6.614e-5
-0.431	-2.910e-5	-6.643e-5
-0.430	-2.882e-5	-6.672e-5
-0.429	-2.852e-5	-6.701e-5
-0.428	-2.822e-5	-6.729e-5
-0.427	-2.792e-5	-6.757e-5
-0.426	-2.760e-5	-6.785e-5
-0.425	-2.728e-5	-6.812e-5
-0.424	-2.694e-5	-6.839e-5
-0.423	-2.659e-5	-6.865e-5
-0.422	-2.623e-5	-6.892e-5
-0.421	-2.586e-5	-6.917e-5
-0.420	-2.548e-5	-6.943e-5
-0.419	-2.509e-5	-6.968e-5
-0.418	-2.469e-5	-6.993e-5
-0.417	-2.427e-5	-7.017e-5
-0.416	-2.383e-5	-7.041e-5
-0.415	-2.339e-5	-7.064e-5
-0.414	-2.293e-5	-7.087e-5
-0.413	-2.246e-5	-7.110e-5
-0.412	-2.198e-5	-7.132e-5
-0.411	-2.148e-5	-7.153e-5
-0.410	-2.096e-5	-7.174e-5
-0.409	-2.043e-5	-7.194e-5
-0.408	-1.988e-5	-7.214e-5
-0.407	-1.931e-5	-7.234e-5
-0.406	-1.873e-5	-7.252e-5
-0.405	-1.814e-5	-7.270e-5
-0.404	-1.752e-5	-7.288e-5
-0.403	-1.688e-5	-7.305e-5
-0.402	-1.623e-5	-7.321e-5
-0.401	-1.556e-5	-7.337e-5
-0.400	-1.487e-5	-7.352e-5
-0.399	-1.416e-5	-7.366e-5
-0.398	-1.343e-5	-7.379e-5
-0.397	-1.268e-5	-7.392e-5
-0.396	-1.191e-5	-7.404e-5
-0.395	-1.113e-5	-7.415e-5
-0.394	-1.032e-5	-7.425e-5
-0.393	-9.492e-6	-7.435e-5
-0.392	-8.637e-6	-7.443e-5
-0.391	-7.755e-6	-7.451e-5
-0.390	-6.852e-6	-7.458e-5
-0.389	-5.931e-6	-7.464e-5
-0.388	-4.990e-6	-7.469e-5
-0.387	-4.030e-6	-7.473e-5
-0.386	-3.046e-6	-7.476e-5
-0.385	-2.036e-6	-7.478e-5
-0.384	-1.001e-6	-7.479e-5
-0.383	5.394e-8	-7.479e-5
-0.382	1.126e-6	-7.478e-5
-0.381	2.215e-6	-7.476e-5
-0.380	3.323e-6	-7.472e-5
-0.379	4.453e-6	-7.468e-5
-0.378	5.605e-6	-7.462e-5
-0.377	6.778e-6	-7.455e-5
-0.376	7.966e-6	-7.447e-5
-0.375	9.170e-6	-7.438e-5
-0.374	1.039e-5	-7.428e-5
-0.373	1.162e-5	-7.416e-5
-0.372	1.288e-5	-7.403e-5
-0.371	1.414e-5	-7.389e-5
-0.370	1.542e-5	-7.374e-5
-0.369	1.671e-5	-7.357e-5
-0.368	1.801e-5	-7.339e-5
-0.367	1.931e-5	-7.320e-5
-0.366	2.062e-5	-7.299e-5
-0.365	2.194e-5	-7.277e-5
-0.364	2.326e-5	-7.254e-5
-0.363	2.459e-5	-7.229e-5
-0.362	2.591e-5	-7.203e-5
-0.361	2.724e-5	-7.176e-5
-0.360	2.856e-5	-7.148e-5
-0.359	2.988e-5	-7.118e-5
-0.358	3.120e-5	-7.087e-5
-0.357	3.251e-5	-7.054e-5
-0.356	3.381e-5	-7.020e-5
-0.355	3.509e-5	-6.985e-5
-0.354	3.637e-5	-6.949e-5
-0.353	3.763e-5	-6.911e-5
-0.352	3.887e-5	-6.872e-5
-0.351	4.011e-5	-6.832e-5
-0.350	4.132e-5	-6.791e-5
-0.349	4.250e-5	-6.748e-5
-0.348	4.367e-5	-6.705e-5
-0.347	4.481e-5	-6.660e-5
-0.346	4.593e-5	-6.614e-5
-0.345	4.702e-5	-6.567e-5
-0.344	4.809e-5	-6.519e-5
-0.343	4.913e-5	-6.470e-5
-0.342	5.013e-5	-6.420e-5
-0.341	5.110e-5	-6.368e-5
-0.340	5.204e-5	-6.316e-5
-0.339	5.295e-5	-6.263e-5
-0.338	5.383e-5	-6.210e-5
-0.337	5.468e-5	-6.155e-5
-0.336	5.549e-5	-6.099e-5
-0.335	5.627e-5	-6.043e-5
-0.334	5.702e-5	-5.986e-5
-0.333	5.773e-5	-5.928e-5
-0.332	5.841e-5	-5.870e-5
-0.331	5.904e-5	-5.811e-5
-0.330	5.965e-5	-5.751e-5
-0.329	6.021e-5	-5.691e-5
-0.328	6.075e-5	-5.630e-5
-0.327	6.126e-5	-5.569e-5
-0.326	6.173e-5	-5.507e-5
-0.325	6.217e-5	-5.445e-5
-0.324	6.257e-5	-5.383e-5
-0.323	6.294e-5	-5.320e-5
-0.322	6.328e-5	-5.256e-5
-0.321	6.359e-5	-5.193e-5
-0.320	6.387e-5	-5.129e-5
-0.319	6.411e-5	-5.065e-5
-0.318	6.433e-5	-5.001e-5
-0.317	6.452e-5	-4.936e-5
-0.316	6.469e-5	-4.871e-5
-0.315	6.482e-5	-4.807e-5
-0.314	6.494e-5	-4.742e-5
-0.313	6.502e-5	-4.677e-5
-0.312	6.508e-5	-4.611e-5
-0.311	6.513e-5	-4.546e-5
-0.310	6.514e-5	-4.481e-5
-0.309	6.515e-5	-4.416e-5
-0.308	6.513e-5	-4.351e-5
-0.307	6.510e-5	-4.286e-5
-0.306	6.504e-5	-4.221e-5
-0.305	6.497e-5	-4.156e-5
-0.304	6.488e-5	-4.091e-5
-0.303	6.477e-5	-4.026e-5
-0.302	6.464e-5	-3.962e-5
-0.301	6.451e-5	-3.897e-5
-0.300	6.437e-5	-3.833e-5
-0.299	6.421e-5	-3.768e-5
-0.298	6.404e-5	-3.704e-5
-0.297	6.385e-5	-3.641e-5
-0.296	6.366e-5	-3.577e-5
-0.295	6.346e-5	-3.513e-5
-0.294	6.326e-5	-3.450e-5
-0.293	6.304e-5	-3.387e-5
-0.292	6.282e-5	-3.324e-5
-0.291	6.259e-5	-3.262e-5
-0.290	6.236e-5	-3.199e-5
-0.289	6.212e-5	-3.137e-5
-0.288	6.188e-5	-3.075e-5
-0.287	6.164e-5	-3.014e-5
-0.286	6.139e-5	-2.952e-5
-0.285	6.115e-5	-2.891e-5
-0.284	6.089e-5	-2.830e-5
-0.283	6.064e-5	-2.770e-5
-0.282	6.038e-5	-2.709e-5
-0.281	6.013e-5	-2.649e-5
-0.280	5.987e-5	-2.589e-5
-0.279	5.961e-5	-2.530e-5
-0.278	5.936e-5	-2.470e-5
-0.277	5.910e-5	-2.411e-5
-0.276	5.884e-5	-2.352e-5
-0.275	5.859e-5	-2.294e-5
-0.274	5.833e-5	-2.235e-5
-0.273	5.808e-5	-2.177e-5
-0.272	5.783e-5	-2.120e-5
-0.271	5.757e-5	-2.062e-5
-0.270	5.733e-5	-2.005e-5
-0.269	5.708e-5	-1.948e-5
-0.268	5.683e-5	-1.891e-5
-0.267	5.659e-5	-1.834e-5
-0.266	5.635e-5	-1.778e-5
-0.265	5.611e-5	-1.722e-5
-0.264	5.587e-5	-1.666e-5
-0.263	5.564e-5	-1.610e-5
-0.262	5.541e-5	-1.555e-5
-0.261	5.517e-5	-1.500e-5
-0.260	5.494e-5	-1.445e-5
-0.259	5.472e-5	-1.390e-5
-0.258	5.449e-5	-1.335e-5
-0.257	5.427e-5	-1.281e-5
-0.256	5.405e-5	-1.227e-5
-0.255	5.383e-5	-1.173e-5
-0.254	5.361e-5	-1.120e-5
-0.253	5.340e-5	-1.066e-5
-0.252	5.319e-5	-1.013e-5
-0.251	5.298e-5	-9.601e-6
-0.250	5.278e-5	-9.073e-6
-0.249	5.257e-5	-8.547e-6
-0.248	5.237e-5	-8.024e-6
-0.247	5.216e-5	-7.502e-6
-0.246	5.196e-5	-6.983e-6
-0.245	5.176e-5	-6.465e-6
-0.244	5.156e-5	-5.949e-6
-0.243	5.136e-5	-5.436e-6
-0.242	5.117e-5	-4.924e-6
-0.241	5.098e-5	-4.414e-6
-0.240	5.079e-5	-3.906e-6
-0.239	5.060e-5	-3.400e-6
-0.238	5.041e-5	-2.896e-6
-0.237	5.021e-5	-2.394e-6
-0.236	5.002e-5	-1.894e-6
-0.235	4.983e-5	-1.396e-6
-0.234	4.964e-5	-8.993e-7
-0.233	4.944e-5	-4.049e-7
-0.232	4.925e-5	8.761e-8
-0.231	4.906e-5	5.782e-7
-0.230	4.887e-5	1.067e-6
-0.229	4.868e-5	1.554e-6
-0.228	4.849e-5	2.039e-6
-0.227	4.830e-5	2.522e-6
-0.226	4.811e-5	3.003e-6
-0.225	4.791e-5	3.482e-6
-0.224	4.772e-5	3.959e-6
-0.223	4.753e-5	4.434e-6
-0.222	4.733e-5	4.908e-6
-0.221	4.714e-5	5.379e-6
-0.220	4.694e-5	5.849e-6
-0.219	4.675e-5	6.316e-6
-0.218	4.655e-5	6.781e-6
-0.217	4.635e-5	7.245e-6
-0.216	4.615e-5	7.707e-6
-0.215	4.596e-5	8.166e-6
-0.214	4.576e-5	8.624e-6
-0.213	4.556e-5	9.079e-6
-0.212	4.536e-5	9.533e-6
-0.211	4.516e-5	9.985e-6
-0.210	4.497e-5	1.043e-5
-0.209	4.477e-5	1.088e-5
-0.208	4.457e-5	1.133e-5
-0.207	4.436e-5	1.177e-5
-0.206	4.416e-5	1.221e-5
-0.205	4.396e-5	1.265e-5
-0.204	4.376e-5	1.309e-5
-0.203	4.356e-5	1.353e-5
-0.202	4.335e-5	1.396e-5
-0.201	4.315e-5	1.439e-5
-0.200	4.295e-5	1.482e-5
-0.199	4.275e-5	1.525e-5
-0.198	4.254e-5	1.567e-5
-0.197	4.234e-5	1.610e-5
-0.196	4.214e-5	1.652e-5
-0.195	4.193e-5	1.694e-5
-0.194	4.173e-5	1.735e-5
-0.193	4.153e-5	1.777e-5
-0.192	4.133e-5	1.818e-5
-0.191	4.113e-5	1.859e-5
-0.190	4.093e-5	1.900e-5
-0.189	4.073e-5	1.941e-5
-0.188	4.053e-5	1.982e-5
-0.187	4.033e-5	2.022e-5
-0.186	4.013e-5	2.062e-5
-0.185	3.993e-5	2.102e-5
-0.184	3.973e-5	2.142e-5
-0.183	3.953e-5	2.181e-5
-0.182	3.933e-5	2.221e-5
-0.181	3.913e-5	2.260e-5
-0.180	3.893e-5	2.299e-5
-0.179	3.874e-5	2.337e-5
-0.178	3.854e-5	2.376e-5
-0.177	3.835e-5	2.414e-5
-0.176	3.815e-5	2.452e-5
-0.175	3.796e-5	2.490e-5
-0.174	3.777e-5	2.528e-5
-0.173	3.758e-5	2.566e-5
-0.172	3.739e-5	2.603e-5
-0.171	3.720e-5	2.640e-5
-0.170	3.702e-5	2.677e-5
-0.169	3.683e-5	2.714e-5
-0.168	3.664e-5	2.751e-5
-0.167	3.646e-5	2.787e-5
-0.166	3.627e-5	2.824e-5
-0.165	3.609e-5	2.860e-5
-0.164	3.591e-5	2.896e-5
-0.163	3.573e-5	2.931e-5
-0.162	3.555e-5	2.967e-5
-0.161	3.538e-5	3.002e-5
-0.160	3.520e-5	3.037e-5
-0.159	3.503e-5	3.072e-5
-0.158	3.486e-5	3.107e-5
-0.157	3.469e-5	3.142e-5
-0.156	3.451e-5	3.177e-5
-0.155	3.434e-5	3.211e-5
-0.154	3.417e-5	3.245e-5
-0.153	3.401e-5	3.279e-5
-0.152	3.384e-5	3.313e-5
-0.151	3.368e-5	3.347e-5
-0.150	3.351e-5	3.380e-5
-0.149	3.335e-5	3.413e-5
-0.148	3.319e-5	3.447e-5
-0.147	3.304e-5	3.480e-5
-0.146	3.288e-5	3.513e-5
-0.145	3.273e-5	3.545e-5
-0.144	3.257e-5	3.578e-5
-0.143	3.242e-5	3.610e-5
-0.142	3.227e-5	3.643e-5
-0.141	3.212e-5	3.675e-5
-0.140	3.197e-5	3.707e-5
-0.139	3.183e-5	3.738e-5
-0.138	3.168e-5	3.770e-5
-0.137	3.154e-5	3.802e-5
-0.136	3.140e-5	3.833e-5
-0.135	3.126e-5	3.864e-5
-0.134	3.112e-5	3.895e-5
-0.133	3.099e-5	3.926e-5
-0.132	3.085e-5	3.957e-5
-0.131	3.072e-5	3.988e-5
-0.130	3.059e-5	4.019e-5
-0.129	3.046e-5	4.049e-5
-0.128	3.034e-5	4.079e-5
-0.127	3.021e-5	4.110e-5
-0.126	3.009e-5	4.140e-5
-0.125	2.997e-5	4.170e-5
-0.124	2.985e-5	4.200e-5
-0.123	2.973e-5	4.229e-5
-0.122	2.962e-5	4.259e-5
-0.121	2.951e-5	4.288e-5
-0.120	2.940e-5	4.318e-5
-0.119	2.929e-5	4.347e-5
-0.118	2.918e-5	4.376e-5
-0.117	2.907e-5	4.405e-5
-0.116	2.897e-5	4.434e-5
-0.115	2.886e-5	4.463e-5
-0.114	2.876e-5	4.492e-5
-0.113	2.866e-5	4.521e-5
-0.112	2.856e-5	4.549e-5
-0.111	2.846e-5	4.578e-5
-0.110	2.836e-5	4.606e-5
-0.109	2.827e-5	4.634e-5
-0.108	2.817e-5	4.662e-5
-0.107	2.807e-5	4.690e-5
-0.106	2.798e-5	4.718e-5
-0.105	2.788e-5	4.746e-5
-0.104	2.779e-5	4.774e-5
-0.103	2.769e-5	4.802e-5
-0.102	2.760e-5	4.829e-5
-0.101	2.750e-5	4.857e-5
-0.100	2.741e-5	4.884e-5
-0.099	2.731e-5	4.912e-5
-0.098	2.722e-5	4.939e-5
-0.097	2.712e-5	4.966e-5
-0.096	2.703e-5	4.993e-5
-0.095	2.693e-5	5.020e-5
-0.094	2.683e-5	5.047e-5
-0.093	2.674e-5	5.073e-5
-0.092	2.664e-5	5.100e-5
-0.091	2.654e-5	5.127e-5
-0.090	2.644e-5	5.153e-5
-0.089	2.634e-5	5.179e-5
-0.088	2.624e-5	5.206e-5
-0.087	2.614e-5	5.232e-5
-0.086	2.604e-5	5.258e-5
-0.085	2.594e-5	5.284e-5
-0.084	2.584e-5	5.310e-5
-0.083	2.574e-5	5.335e-5
-0.082	2.564e-5	5.361e-5
-0.081	2.554e-5	5.387e-5
-0.080	2.544e-5	5.412e-5
-0.079	2.534e-5	5.437e-5
-0.078	2.524e-5	5.463e-5
-0.077	2.514e-5	5.488e-5
-0.076	2.505e-5	5.513e-5
-0.075	2.495e-5	5.538e-5
-0.074	2.485e-5	5.563e-5
-0.073	2.474e-5	5.587e-5
-0.072	2.465e-5	5.612e-5
-0.071	2.455e-5	5.637e-5
-0.070	2.445e-5	5.661e-5
-0.069	2.435e-5	5.685e-5
-0.068	2.426e-5	5.710e-5
-0.067	2.416e-5	5.734e-5
-0.066	2.406e-5	5.758e-5
-0.065	2.397e-5	5.782e-5
-0.064	2.387e-5	5.806e-5
-0.063	2.378e-5	5.829e-5
-0.062	2.369e-5	5.853e-5
-0.061	2.359e-5	5.877e-5
-0.060	2.350e-5	5.900e-5
-0.059	2.341e-5	5.924e-5
-0.058	2.332e-5	5.947e-5
-0.057	2.322e-5	5.970e-5
-0.056	2.313e-5	5.993e-5
-0.055	2.304e-5	6.016e-5
-0.054	2.296e-5	6.039e-5
-0.053	2.287e-5	6.062e-5
-0.052	2.278e-5	6.085e-5
-0.051	2.270e-5	6.108e-5
-0.050	2.261e-5	6.130e-5
-0.049	2.253e-5	6.153e-5
-0.048	2.244e-5	6.175e-5
-0.047	2.236e-5	6.198e-5
-0.046	2.227e-5	6.220e-5
-0.045	2.219e-5	6.242e-5
-0.044	2.211e-5	6.264e-5
-0.043	2.203e-5	6.286e-5
-0.042	2.195e-5	6.308e-5
-0.041	2.187e-5	6.330e-5
-0.040	2.179e-5	6.352e-5
-0.039	2.171e-5	6.374e-5
-0.038	2.164e-5	6.395e-5
-0.037	2.156e-5	6.417e-5
-0.036	2.148e-5	6.438e-5
-0.035	2.141e-5	6.460e-5
-0.034	2.133e-5	6.481e-5
-0.033	2.126e-5	6.502e-5
-0.032	2.119e-5	6.523e-5
-0.031	2.111e-5	6.545e-5
-0.030	2.104e-5	6.566e-5
-0.029	2.096e-5	6.587e-5
-0.028	2.089e-5	6.607e-5
-0.027	2.082e-5	6.628e-5
-0.026	2.075e-5	6.649e-5
-0.025	2.068e-5	6.670e-5
-0.024	2.061e-5	6.690e-5
-0.023	2.054e-5	6.711e-5
-0.022	2.047e-5	6.731e-5
-0.021	2.040e-5	6.752e-5
-0.020	2.034e-5	6.772e-5
-0.019	2.027e-5	6.792e-5
-0.018	2.020e-5	6.812e-5
-0.017	2.014e-5	6.833e-5
-0.016	2.007e-5	6.853e-5
-0.015	2.000e-5	6.873e-5
-0.014	1.994e-5	6.893e-5
-0.013	1.987e-5	6.913e-5
-0.012	1.981e-5	6.932e-5
-0.011	1.975e-5	6.952e-5
-0.010	1.968e-5	6.972e-5
-0.009	1.962e-5	6.991e-5
-0.008	1.956e-5	7.011e-5
-0.007	1.950e-5	7.030e-5
-0.006	1.944e-5	7.050e-5
-0.005	1.939e-5	7.069e-5
-0.004	1.933e-5	7.089e-5
-0.003	1.927e-5	7.108e-5
-0.002	1.921e-5	7.127e-5
-0.001	1.915e-5	7.146e-5
-0.000	1.879e-5	1.879e-7
-0.001	1.845e-5	3.724e-7
-0.002	1.818e-5	5.542e-7
-0.003	1.796e-5	7.338e-7
-0.004	1.781e-5	9.119e-7
-0.005	1.770e-5	1.089e-6
-0.006	1.760e-5	1.265e-6
-0.007	1.750e-5	1.440e-6
-0.008	1.740e-5	1.614e-6
-0.009	1.731e-5	1.787e-6
-0.010	1.722e-5	1.959e-6
-0.011	1.713e-5	2.130e-6
-0.012	1.704e-5	2.301e-6
-0.013	1.696e-5	2.470e-6
-0.014	1.688e-5	2.639e-6
-0.015	1.679e-5	2.807e-6
-0.016	1.672e-5	2.974e-6
-0.017	1.664e-5	3.141e-6
-0.018	1.656e-5	3.306e-6
-0.019	1.649e-5	3.471e-6
-0.020	1.641e-5	3.635e-6
-0.021	1.634e-5	3.799e-6
-0.022	1.627e-5	3.961e-6
-0.023	1.620e-5	4.123e-6
-0.024	1.613e-5	4.285e-6
-0.025	1.606e-5	4.445e-6
-0.026	1.599e-5	4.605e-6
-0.027	1.592e-5	4.764e-6
-0.028	1.585e-5	4.923e-6
-0.029	1.578e-5	5.081e-6
-0.030	1.572e-5	5.238e-6
-0.031	1.565e-5	5.394e-6
-0.032	1.559e-5	5.550e-6
-0.033	1.552e-5	5.705e-6
-0.034	1.546e-5	5.860e-6
-0.035	1.539e-5	6.014e-6
-0.036	1.533e-5	6.167e-6
-0.037	1.526e-5	6.320e-6
-0.038	1.520e-5	6.472e-6
-0.039	1.514e-5	6.623e-6
-0.040	1.508e-5	6.774e-6
-0.041	1.501e-5	6.924e-6
-0.042	1.495e-5	7.074e-6
-0.043	1.489e-5	7.222e-6
-0.044	1.483e-5	7.371e-6
-0.045	1.477e-5	7.518e-6
-0.046	1.471e-5	7.666e-6
-0.047	1.465e-5	7.812e-6
-0.048	1.459e-5	7.958e-6
-0.049	1.453e-5	8.103e-6
-0.050	1.447e-5	8.248e-6
-0.051	1.441e-5	8.392e-6
-0.052	1.436e-5	8.536e-6
-0.053	1.430e-5	8.679e-6
-0.054	1.424e-5	8.821e-6
-0.055	1.418e-5	8.963e-6
-0.056	1.412e-5	9.104e-6
-0.057	1.406e-5	9.245e-6
-0.058	1.401e-5	9.385e-6
-0.059	1.395e-5	9.524e-6
-0.060	1.389e-5	9.663e-6
-0.061	1.383e-5	9.802e-6
-0.062	1.377e-5	9.939e-6
-0.063	1.371e-5	1.008e-5
-0.064	1.366e-5	1.021e-5
-0.065	1.360e-5	1.035e-5
-0.066	1.354e-5	1.048e-5
-0.067	1.348e-5	1.062e-5
-0.068	1.342e-5	1.075e-5
-0.069	1.336e-5	1.089e-5
-0.070	1.330e-5	1.102e-5
-0.071	1.324e-5	1.115e-5
-0.072	1.318e-5	1.128e-5
-0.073	1.312e-5	1.142e-5
-0.074	1.306e-5	1.155e-5
-0.075	1.300e-5	1.168e-5
-0.076	1.293e-5	1.181e-5
-0.077	1.287e-5	1.193e-5
-0.078	1.281e-5	1.206e-5
-0.079	1.274e-5	1.219e-5
-0.080	1.268e-5	1.232e-5
-0.081	1.262e-5	1.244e-5
-0.082	1.255e-5	1.257e-5
-0.083	1.249e-5	1.269e-5
-0.084	1.242e-5	1.282e-5
-0.085	1.235e-5	1.294e-5
-0.086	1.229e-5	1.306e-5
-0.087	1.222e-5	1.319e-5
-0.088	1.215e-5	1.331e-5
-0.089	1.209e-5	1.343e-5
-0.090	1.202e-5	1.355e-5
-0.091	1.195e-5	1.367e-5
-0.092	1.188e-5	1.379e-5
-0.093	1.181e-5	1.390e-5
-0.094	1.174e-5	1.402e-5
-0.095	1.167e-5	1.414e-5
-0.096	1.161e-5	1.425e-5
-0.097	1.154e-5	1.437e-5
-0.098	1.147e-5	1.448e-5
-0.099	1.140e-5	1.460e-5
-0.100	1.134e-5	1.471e-5
-0.101	1.127e-5	1.483e-5
-0.102	1.121e-5	1.494e-5
-0.103	1.114e-5	1.505e-5
-0.104	1.108e-5	1.516e-5
-0.105	1.102e-5	1.527e-5
-0.106	1.096e-5	1.538e-5
-0.107	1.090e-5	1.549e-5
-0.108	1.084e-5	1.560e-5
-0.109	1.078e-5	1.570e-5
-0.110	1.073e-5	1.581e-5
-0.111	1.067e-5	1.592e-5
-0.112	1.062e-5	1.602e-5
-0.113	1.057e-5	1.613e-5
-0.114	1.051e-5	1.624e-5
-0.115	1.046e-5	1.634e-5
-0.116	1.041e-5	1.644e-5
-0.117	1.037e-5	1.655e-5
-0.118	1.032e-5	1.665e-5
-0.119	1.027e-5	1.675e-5
-0.120	1.023e-5	1.686e-5
-0.121	1.019e-5	1.696e-5
-0.122	1.015e-5	1.706e-5
-0.123	1.010e-5	1.716e-5
-0.124	1.006e-5	1.726e-5
-0.125	1.002e-5	1.736e-5
-0.126	9.984e-6	1.746e-5
-0.127	9.945e-6	1.756e-5
-0.128	9.907e-6	1.766e-5
-0.129	9.869e-6	1.776e-5
-0.130	9.832e-6	1.786e-5
-0.131	9.795e-6	1.795e-5
-0.132	9.758e-6	1.805e-5
-0.133	9.722e-6	1.815e-5
-0.134	9.685e-6	1.825e-5
-0.135	9.649e-6	1.834e-5
-0.136	9.613e-6	1.844e-5
-0.137	9.577e-6	1.853e-5
-0.138	9.543e-6	1.863e-5
-0.139	9.507e-6	1.872e-5
-0.140	9.472e-6	1.882e-5
-0.141	9.436e-6	1.891e-5
-0.142	9.400e-6	1.901e-5
-0.143	9.362e-6	1.910e-5
-0.144	9.325e-6	1.919e-5
-0.145	9.288e-6	1.929e-5
-0.146	9.250e-6	1.938e-5
-0.147	9.212e-6	1.947e-5
-0.148	9.174e-6	1.956e-5
-0.149	9.135e-6	1.966e-5
-0.150	9.095e-6	1.975e-5
-0.151	9.055e-6	1.984e-5
-0.152	9.015e-6	1.993e-5
-0.153	8.974e-6	2.002e-5
-0.154	8.934e-6	2.011e-5
-0.155	8.892e-6	2.020e-5
-0.156	8.851e-6	2.028e-5
-0.157	8.809e-6	2.037e-5
-0.158	8.766e-6	2.046e-5
-0.159	8.723e-6	2.055e-5
-0.160	8.680e-6	2.063e-5
-0.161	8.635e-6	2.072e-5
-0.162	8.591e-6	2.081e-5
-0.163	8.545e-6	2.089e-5
-0.164	8.498e-6	2.098e-5
-0.165	8.451e-6	2.106e-5
-0.166	8.403e-6	2.114e-5
-0.167	8.354e-6	2.123e-5
-0.168	8.306e-6	2.131e-5
-0.169	8.257e-6	2.139e-5
-0.170	8.207e-6	2.148e-5
-0.171	8.156e-6	2.156e-5
-0.172	8.104e-6	2.164e-5
-0.173	8.051e-6	2.172e-5
-0.174	7.998e-6	2.180e-5
-0.175	7.943e-6	2.188e-5
-0.176	7.889e-6	2.196e-5
-0.177	7.834e-6	2.204e-5
-0.178	7.778e-6	2.211e-5
-0.179	7.720e-6	2.219e-5
-0.180	7.662e-6	2.227e-5
-0.181	7.602e-6	2.234e-5
-0.182	7.540e-6	2.242e-5
-0.183	7.477e-6	2.249e-5
-0.184	7.414e-6	2.257e-5
-0.185	7.350e-6	2.264e-5
-0.186	7.286e-6	2.271e-5
-0.187	7.220e-6	2.279e-5
-0.188	7.154e-6	2.286e-5
-0.189	7.087e-6	2.293e-5
-0.190	7.018e-6	2.300e-5
-0.191	6.948e-6	2.307e-5
-0.192	6.877e-6	2.314e-5
-0.193	6.804e-6	2.320e-5
-0.194	6.730e-6	2.327e-5
-0.195	6.654e-6	2.334e-5
-0.196	6.578e-6	2.340e-5
-0.197	6.499e-6	2.347e-5
-0.198	6.420e-6	2.353e-5
-0.199	6.339e-6	2.360e-5
-0.200	6.257e-6	2.366e-5
-0.201	6.173e-6	2.372e-5
-0.202	6.088e-6	2.378e-5
-0.203	6.001e-6	2.384e-5
-0.204	5.912e-6	2.390e-5
-0.205	5.822e-6	2.396e-5
-0.206	5.731e-6	2.402e-5
-0.207	5.638e-6	2.407e-5
-0.208	5.544e-6	2.413e-5
-0.209	5.446e-6	2.418e-5
-0.210	5.346e-6	2.424e-5
-0.211	5.244e-6	2.429e-5
-0.212	5.140e-6	2.434e-5
-0.213	5.034e-6	2.439e-5
-0.214	4.927e-6	2.444e-5
-0.215	4.817e-6	2.449e-5
-0.216	4.705e-6	2.454e-5
-0.217	4.591e-6	2.458e-5
-0.218	4.474e-6	2.463e-5
-0.219	4.354e-6	2.467e-5
-0.220	4.232e-6	2.471e-5
-0.221	4.108e-6	2.475e-5
-0.222	3.982e-6	2.479e-5
-0.223	3.854e-6	2.483e-5
-0.224	3.725e-6	2.487e-5
-0.225	3.593e-6	2.490e-5
-0.226	3.458e-6	2.494e-5
-0.227	3.319e-6	2.497e-5
-0.228	3.176e-6	2.500e-5
-0.229	3.030e-6	2.503e-5
-0.230	2.881e-6	2.506e-5
-0.231	2.729e-6	2.509e-5
-0.232	2.574e-6	2.512e-5
-0.233	2.416e-6	2.514e-5
-0.234	2.255e-6	2.516e-5
-0.235	2.091e-6	2.518e-5
-0.236	1.923e-6	2.520e-5
-0.237	1.753e-6	2.522e-5
-0.238	1.578e-6	2.524e-5
-0.239	1.400e-6	2.525e-5
-0.240	1.218e-6	2.526e-5
-0.241	1.031e-6	2.527e-5
-0.242	8.403e-7	2.528e-5
-0.243	6.453e-7	2.529e-5
-0.244	4.466e-7	2.529e-5
-0.245	2.428e-7	2.529e-5
-0.246	3.415e-8	2.529e-5
-0.247	-1.801e-7	2.529e-5
-0.248	-3.994e-7	2.529e-5
-0.249	-6.241e-7	2.528e-5
-0.250	-8.529e-7	2.527e-5
-0.251	-1.087e-6	2.526e-5
-0.252	-1.326e-6	2.525e-5
-0.253	-1.569e-6	2.523e-5
-0.254	-1.819e-6	2.522e-5
-0.255	-2.074e-6	2.520e-5
-0.256	-2.335e-6	2.517e-5
-0.257	-2.604e-6	2.515e-5
-0.258	-2.880e-6	2.512e-5
-0.259	-3.163e-6	2.509e-5
-0.260	-3.453e-6	2.505e-5
-0.261	-3.752e-6	2.501e-5
-0.262	-4.059e-6	2.497e-5
-0.263	-4.375e-6	2.493e-5
-0.264	-4.699e-6	2.488e-5
-0.265	-5.032e-6	2.483e-5
-0.266	-5.373e-6	2.478e-5
-0.267	-5.724e-6	2.472e-5
-0.268	-6.085e-6	2.466e-5
-0.269	-6.457e-6	2.460e-5
-0.270	-6.840e-6	2.453e-5
-0.271	-7.236e-6	2.445e-5
-0.272	-7.645e-6	2.438e-5
-0.273	-8.068e-6	2.430e-5
-0.274	-8.504e-6	2.421e-5
-0.275	-8.954e-6	2.412e-5
-0.276	-9.417e-6	2.403e-5
-0.277	-9.894e-6	2.393e-5
-0.278	-1.039e-5	2.383e-5
-0.279	-1.089e-5	2.372e-5
-0.280	-1.142e-5	2.360e-5
-0.281	-1.196e-5	2.348e-5
-0.282	-1.251e-5	2.336e-5
-0.283	-1.309e-5	2.323e-5
-0.284	-1.369e-5	2.309e-5
-0.285	-1.431e-5	2.295e-5
-0.286	-1.496e-5	2.280e-5
-0.287	-1.562e-5	2.264e-5
-0.288	-1.631e-5	2.248e-5
-0.289	-1.703e-5	2.231e-5
-0.290	-1.776e-5	2.213e-5
-0.291	-1.852e-5	2.195e-5
-0.292	-1.931e-5	2.175e-5
-0.293	-2.012e-5	2.155e-5
-0.294	-2.096e-5	2.134e-5
-0.295	-2.184e-5	2.112e-5
-0.296	-2.273e-5	2.090e-5
-0.297	-2.366e-5	2.066e-5
-0.298	-2.462e-5	2.041e-5
-0.299	-2.561e-5	2.016e-5
-0.300	-2.663e-5	1.989e-5
-0.301	-2.768e-5	1.961e-5
-0.302	-2.875e-5	1.933e-5
-0.303	-2.986e-5	1.903e-5
-0.304	-3.099e-5	1.872e-5
-0.305	-3.217e-5	1.840e-5
-0.306	-3.337e-5	1.806e-5
-0.307	-3.461e-5	1.772e-5
-0.308	-3.587e-5	1.736e-5
-0.309	-3.716e-5	1.699e-5
-0.310	-3.848e-5	1.660e-5
-0.311	-3.982e-5	1.620e-5
-0.312	-4.119e-5	1.579e-5
-0.313	-4.258e-5	1.537e-5
-0.314	-4.400e-5	1.493e-5
-0.315	-4.544e-5	1.447e-5
-0.316	-4.689e-5	1.400e-5
-0.317	-4.837e-5	1.352e-5
-0.318	-4.987e-5	1.302e-5
-0.319	-5.138e-5	1.251e-5
-0.320	-5.291e-5	1.198e-5
-0.321	-5.445e-5	1.143e-5
-0.322	-5.600e-5	1.087e-5
-0.323	-5.756e-5	1.030e-5
-0.324	-5.912e-5	9.706e-6
-0.325	-6.069e-5	9.099e-6
-0.326	-6.226e-5	8.476e-6
-0.327	-6.384e-5	7.838e-6
-0.328	-6.542e-5	7.183e-6
-0.329	-6.699e-5	6.514e-6
-0.330	-6.856e-5	5.828e-6
-0.331	-7.012e-5	5.127e-6
-0.332	-7.168e-5	4.410e-6
-0.333	-7.323e-5	3.678e-6
-0.334	-7.476e-5	2.930e-6
-0.335	-7.627e-5	2.167e-6
-0.336	-7.778e-5	1.390e-6
-0.337	-7.927e-5	5.968e-7
-0.338	-8.075e-5	-2.107e-7
-0.339	-8.221e-5	-1.033e-6
-0.340	-8.365e-5	-1.869e-6
-0.341	-8.506e-5	-2.720e-6
-0.342	-8.645e-5	-3.584e-6
-0.343	-8.781e-5	-4.462e-6
-0.344	-8.915e-5	-5.354e-6
-0.345	-9.046e-5	-6.259e-6
-0.346	-9.173e-5	-7.176e-6
-0.347	-9.298e-5	-8.106e-6
-0.348	-9.419e-5	-9.047e-6
-0.349	-9.537e-5	-1.000e-5
-0.350	-9.651e-5	-1.097e-5
-0.351	-9.763e-5	-1.194e-5
-0.352	-9.870e-5	-1.293e-5
-0.353	-9.973e-5	-1.393e-5
-0.354	-1.007e-4	-1.493e-5
-0.355	-1.017e-4	-1.595e-5
-0.356	-1.026e-4	-1.698e-5
-0.357	-1.034e-4	-1.801e-5
-0.358	-1.043e-4	-1.905e-5
-0.359	-1.050e-4	-2.010e-5
-0.360	-1.057e-4	-2.116e-5
-0.361	-1.064e-4	-2.222e-5
-0.362	-1.070e-4	-2.330e-5
-0.363	-1.076e-4	-2.437e-5
-0.364	-1.081e-4	-2.545e-5
-0.365	-1.086e-4	-2.654e-5
-0.366	-1.091e-4	-2.763e-5
-0.367	-1.095e-4	-2.872e-5
-0.368	-1.098e-4	-2.982e-5
-0.369	-1.101e-4	-3.092e-5
-0.370	-1.104e-4	-3.203e-5
-0.371	-1.106e-4	-3.313e-5
-0.372	-1.107e-4	-3.424e-5
-0.373	-1.109e-4	-3.535e-5
-0.374	-1.109e-4	-3.646e-5
-0.375	-1.110e-4	-3.757e-5
-0.376	-1.109e-4	-3.868e-5
-0.377	-1.109e-4	-3.979e-5
-0.378	-1.108e-4	-4.089e-5
-0.379	-1.107e-4	-4.200e-5
-0.380	-1.105e-4	-4.311e-5
-0.381	-1.103e-4	-4.421e-5
-0.382	-1.101e-4	-4.531e-5
-0.383	-1.098e-4	-4.641e-5
-0.384	-1.095e-4	-4.750e-5
-0.385	-1.092e-4	-4.859e-5
-0.386	-1.088e-4	-4.968e-5
-0.387	-1.084e-4	-5.077e-5
-0.388	-1.080e-4	-5.185e-5
-0.389	-1.076e-4	-5.292e-5
-0.390	-1.072e-4	-5.400e-5
-0.391	-1.067e-4	-5.506e-5
-0.392	-1.062e-4	-5.613e-5
-0.393	-1.057e-4	-5.718e-5
-0.394	-1.052e-4	-5.823e-5
-0.395	-1.047e-4	-5.928e-5
-0.396	-1.041e-4	-6.032e-5
-0.397	-1.036e-4	-6.136e-5
-0.398	-1.030e-4	-6.239e-5
-0.399	-1.024e-4	-6.341e-5
-0.400	-1.018e-4	-6.443e-5
-0.401	-1.012e-4	-6.544e-5
-0.402	-1.006e-4	-6.645e-5
-0.403	-1.000e-4	-6.745e-5
-0.404	-9.943e-5	-6.844e-5
-0.405	-9.882e-5	-6.943e-5
-0.406	-9.820e-5	-7.041e-5
-0.407	-9.759e-5	-7.139e-5
-0.408	-9.697e-5	-7.236e-5
-0.409	-9.635e-5	-7.332e-5
-0.410	-9.573e-5	-7.428e-5
-0.411	-9.511e-5	-7.523e-5
-0.412	-9.449e-5	-7.618e-5
-0.413	-9.387e-5	-7.712e-5
-0.414	-9.326e-5	-7.805e-5
-0.415	-9.265e-5	-7.897e-5
-0.416	-9.205e-5	-7.990e-5
-0.417	-9.144e-5	-8.081e-5
-0.418	-9.085e-5	-8.172e-5
-0.419	-9.025e-5	-8.262e-5
-0.420	-8.966e-5	-8.352e-5
-0.421	-8.908e-5	-8.441e-5
-0.422	-8.850e-5	-8.529e-5
-0.423	-8.792e-5	-8.617e-5
-0.424	-8.735e-5	-8.705e-5
-0.425	-8.678e-5	-8.791e-5
-0.426	-8.622e-5	-8.878e-5
-0.427	-8.566e-5	-8.963e-5
-0.428	-8.511e-5	-9.048e-5
-0.429	-8.457e-5	-9.133e-5
-0.430	-8.403e-5	-9.217e-5
-0.431	-8.350e-5	-9.300e-5
-0.432	-8.298e-5	-9.383e-5
-0.433	-8.246e-5	-9.466e-5
-0.434	-8.194e-5	-9.548e-5
-0.435	-8.144e-5	-9.629e-5
-0.436	-8.094e-5	-9.710e-5
-0.437	-8.044e-5	-9.791e-5
-0.438	-7.995e-5	-9.871e-5
-0.439	-7.947e-5	-9.950e-5
-0.440	-7.899e-5	-1.003e-4
-0.441	-7.852e-5	-1.011e-4
-0.442	-7.805e-5	-1.019e-4
-0.443	-7.759e-5	-1.026e-4
-0.444	-7.714e-5	-1.034e-4
-0.445	-7.669e-5	-1.042e-4
-0.446	-7.625e-5	-1.049e-4
-0.447	-7.581e-5	-1.057e-4
-0.448	-7.539e-5	-1.064e-4
-0.449	-7.497e-5	-1.072e-4
-0.450	-7.455e-5	-1.079e-4
-0.451	-7.414e-5	-1.087e-4
-0.452	-7.373e-5	-1.094e-4
-0.453	-7.333e-5	-1.102e-4
-0.454	-7.294e-5	-1.109e-4
-0.455	-7.255e-5	-1.116e-4
-0.456	-7.216e-5	-1.123e-4
-0.457	-7.178e-5	-1.130e-4
-0.458	-7.140e-5	-1.138e-4
-0.459	-7.103e-5	-1.145e-4
-0.460	-7.066e-5	-1.152e-4
-0.461	-7.030e-5	-1.159e-4
-0.462	-6.994e-5	-1.166e-4
-0.463	-6.959e-5	-1.173e-4
-0.464	-6.924e-5	-1.180e-4
-0.465	-6.890e-5	-1.187e-4
-0.466	-6.856e-5	-1.193e-4
-0.467	-6.823e-5	-1.200e-4
-0.468	-6.790e-5	-1.207e-4
-0.469	-6.758e-5	-1.214e-4
-0.470	-6.726e-5	-1.221e-4
-0.471	-6.694e-5	-1.227e-4
-0.472	-6.663e-5	-1.234e-4
-0.473	-6.632e-5	-1.241e-4
-0.474	-6.602e-5	-1.247e-4
-0.475	-6.572e-5	-1.254e-4
-0.476	-6.542e-5	-1.260e-4
-0.477	-6.513e-5	-1.267e-4
-0.478	-6.484e-5	-1.273e-4
-0.479	-6.456e-5	-1.280e-4
-0.480	-6.428e-5	-1.286e-4
-0.481	-6.400e-5	-1.293e-4
-0.482	-6.373e-5	-1.299e-4
-0.483	-6.346e-5	-1.305e-4
-0.484	-6.319e-5	-1.312e-4
-0.485	-6.292e-5	-1.318e-4
-0.486	-6.266e-5	-1.324e-4
-0.487	-6.240e-5	-1.330e-4
-0.488	-6.215e-5	-1.337e-4
-0.489	-6.190e-5	-1.343e-4
-0.490	-6.165e-5	-1.349e-4
-0.491	-6.141e-5	-1.355e-4
-0.492	-6.117e-5	-1.361e-4
-0.493	-6.093e-5	-1.367e-4
-0.494	-6.070e-5	-1.373e-4
-0.495	-6.046e-5	-1.379e-4
-0.496	-6.023e-5	-1.385e-4
-0.497	-6.001e-5	-1.391e-4
-0.498	-5.978e-5	-1.397e-4
-0.499	-5.956e-5	-1.403e-4
-0.500	-5.935e-5	-1.409e-4
-0.501	-5.914e-5	-1.415e-4
-0.502	-5.892e-5	-1.421e-4
-0.503	-5.871e-5	-1.427e-4
-0.504	-5.851e-5	-1.433e-4
-0.505	-5.830e-5	-1.439e-4
-0.506	-5.810e-5	-1.444e-4
-0.507	-5.790e-5	-1.450e-4
-0.508	-5.770e-5	-1.456e-4
-0.509	-5.750e-5	-1.462e-4
-0.510	-5.731e-5	-1.467e-4
-0.511	-5.712e-5	-1.473e-4
-0.512	-5.693e-5	-1.479e-4
-0.513	-5.674e-5	-1.485e-4
-0.514	-5.655e-5	-1.490e-4
-0.515	-5.637e-5	-1.496e-4
-0.516	-5.619e-5	-1.501e-4
-0.517	-5.601e-5	-1.507e-4
-0.518	-5.583e-5	-1.513e-4
-0.519	-5.565e-5	-1.518e-4
-0.520	-5.548e-5	-1.524e-4
-0.521	-5.530e-5	-1.529e-4
-0.522	-5.513e-5	-1.535e-4
-0.523	-5.496e-5	-1.540e-4
-0.524	-5.479e-5	-1.546e-4
-0.525	-5.463e-5	-1.551e-4
-0.526	-5.447e-5	-1.557e-4
-0.527	-5.430e-5	-1.562e-4
-0.528	-5.414e-5	-1.568e-4
-0.529	-5.399e-5	-1.573e-4
-0.530	-5.383e-5	-1.578e-4
-0.531	-5.367e-5	-1.584e-4
-0.532	-5.352e-5	-1.589e-4
-0.533	-5.337e-5	-1.594e-4
-0.534	-5.322e-5	-1.600e-4
-0.535	-5.307e-5	-1.605e-4
-0.536	-5.293e-5	-1.610e-4
-0.537	-5.278e-5	-1.616e-4
-0.538	-5.264e-5	-1.621e-4
-0.539	-5.249e-5	-1.626e-4
-0.540	-5.235e-5	-1.631e-4
-0.541	-5.221e-5	-1.637e-4
-0.542	-5.207e-5	-1.642e-4
-0.543	-5.193e-5	-1.647e-4
-0.544	-5.180e-5	-1.652e-4
-0.545	-5.166e-5	-1.657e-4
-0.546	-5.153e-5	-1.662e-4
-0.547	-5.139e-5	-1.668e-4
-0.548	-5.126e-5	-1.673e-4
-0.549	-5.113e-5	-1.678e-4
-0.550	-5.100e-5	-1.683e-4
-0.551	-5.088e-5	-1.688e-4
-0.552	-5.075e-5	-1.693e-4
-0.553	-5.062e-5	-1.698e-4
-0.554	-5.050e-5	-1.703e-4
-0.555	-5.038e-5	-1.708e-4
-0.556	-5.026e-5	-1.713e-4
-0.557	-5.014e-5	-1.718e-4
-0.558	-5.002e-5	-1.723e-4
-0.559	-4.990e-5	-1.728e-4
-0.560	-4.978e-5	-1.733e-4
-0.561	-4.966e-5	-1.738e-4
-0.562	-4.955e-5	-1.743e-4
-0.563	-4.943e-5	-1.748e-4
-0.564	-4.932e-5	-1.753e-4
-0.565	-4.921e-5	-1.758e-4
-0.566	-4.910e-5	-1.763e-4
-0.567	-4.899e-5	-1.768e-4
-0.568	-4.888e-5	-1.773e-4
-0.569	-4.877e-5	-1.778e-4
-0.570	-4.866e-5	-1.782e-4
-0.571	-4.855e-5	-1.787e-4
-0.572	-4.845e-5	-1.792e-4
-0.573	-4.834e-5	-1.797e-4
-0.574	-4.824e-5	-1.802e-4
-0.575	-4.813e-5	-1.807e-4
-0.576	-4.803e-5	-1.811e-4
-0.577	-4.793e-5	-1.816e-4
-0.578	-4.783e-5	-1.821e-4
-0.579	-4.772e-5	-1.826e-4
-0.580	-4.762e-5	-1.830e-4
-0.581	-4.752e-5	-1.835e-4
-0.582	-4.742e-5	-1.840e-4
-0.583	-4.733e-5	-1.845e-4
-0.584	-4.723e-5	-1.849e-4
-0.585	-4.713e-5	-1.854e-4
-0.586	-4.704e-5	-1.859e-4
-0.587	-4.695e-5	-1.864e-4
-0.588	-4.685e-5	-1.868e-4
-0.589	-4.676e-5	-1.873e-4
-0.590	-4.667e-5	-1.878e-4
-0.591	-4.658e-5	-1.882e-4
-0.592	-4.649e-5	-1.887e-4
-0.593	-4.640e-5	-1.892e-4
-0.594	-4.631e-5	-1.896e-4
-0.595	-4.622e-5	-1.901e-4
-0.596	-4.613e-5	-1.905e-4
-0.597	-4.604e-5	-1.910e-4
-0.598	-4.595e-5	-1.915e-4
-0.599	-4.587e-5	-1.919e-4
-0.600	-4.564e-5	-4.564e-7
-0.599	-4.545e-5	-9.110e-7
-0.598	-4.528e-5	-1.364e-6
-0.597	-4.513e-5	-1.815e-6
-0.596	-4.500e-5	-2.265e-6
-0.595	-4.489e-5	-2.714e-6
-0.594	-4.479e-5	-3.162e-6
-0.593	-4.468e-5	-3.609e-6
-0.592	-4.458e-5	-4.054e-6
-0.591	-4.448e-5	-4.499e-6
-0.590	-4.438e-5	-4.943e-6
-0.589	-4.428e-5	-5.386e-6
-0.588	-4.418e-5	-5.828e-6
-0.587	-4.408e-5	-6.268e-6
-0.586	-4.399e-5	-6.708e-6
-0.585	-4.390e-5	-7.147e-6
-0.584	-4.380e-5	-7.585e-6
-0.583	-4.371e-5	-8.022e-6
-0.582	-4.363e-5	-8.459e-6
-0.581	-4.354e-5	-8.894e-6
-0.580	-4.346e-5	-9.329e-6
-0.579	-4.337e-5	-9.762e-6
-0.578	-4.328e-5	-1.020e-5
-0.577	-4.320e-5	-1.063e-5
-0.576	-4.311e-5	-1.106e-5
-0.575	-4.303e-5	-1.149e-5
-0.574	-4.294e-5	-1.192e-5
-0.573	-4.286e-5	-1.235e-5
-0.572	-4.278e-5	-1.277e-5
-0.571	-4.269e-5	-1.320e-5
-0.570	-4.261e-5	-1.363e-5
-0.569	-4.253e-5	-1.405e-5
-0.568	-4.245e-5	-1.448e-5
-0.567	-4.237e-5	-1.490e-5
-0.566	-4.229e-5	-1.532e-5
-0.565	-4.221e-5	-1.575e-5
-0.564	-4.214e-5	-1.617e-5
-0.563	-4.206e-5	-1.659e-5
-0.562	-4.198e-5	-1.701e-5
-0.561	-4.190e-5	-1.743e-5
-0.560	-4.183e-5	-1.785e-5
-0.559	-4.175e-5	-1.826e-5
-0.558	-4.168e-5	-1.868e-5
-0.557	-4.160e-5	-1.910e-5
-0.556	-4.153e-5	-1.951e-5
-0.555	-4.145e-5	-1.993e-5
-0.554	-4.138e-5	-2.034e-5
-0.553	-4.131e-5	-2.075e-5
-0.552	-4.124e-5	-2.116e-5
-0.551	-4.116e-5	-2.158e-5
-0.550	-4.109e-5	-2.199e-5
-0.549	-4.102e-5	-2.240e-5
-0.548	-4.095e-5	-2.281e-5
-0.547	-4.088e-5	-2.322e-5
-0.546	-4.080e-5	-2.362e-5
-0.545	-4.073e-5	-2.403e-5
-0.544	-4.066e-5	-2.444e-5
-0.543	-4.059e-5	-2.484e-5
-0.542	-4.052e-5	-2.525e-5
-0.541	-4.045e-5	-2.565e-5
-0.540	-4.038e-5	-2.606e-5
-0.539	-4.032e-5	-2.646e-5
-0.538	-4.025e-5	-2.686e-5
-0.537	-4.018e-5	-2.726e-5
-0.536	-4.011e-5	-2.767e-5
-0.535	-4.004e-5	-2.807e-5
-0.534	-3.997e-5	-2.847e-5
-0.533	-3.990e-5	-2.886e-5
-0.532	-3.983e-5	-2.926e-5
-0.531	-3.977e-5	-2.966e-5
-0.530	-3.970e-5	-3.006e-5
-0.529	-3.963e-5	-3.045e-5
-0.528	-3.956e-5	-3.085e-5
-0.527	-3.949e-5	-3.124e-5
-0.526	-3.943e-5	-3.164e-5
-0.525	-3.936e-5	-3.203e-5
-0.524	-3.929e-5	-3.243e-5
-0.523	-3.923e-5	-3.282e-5
-0.522	-3.916e-5	-3.321e-5
-0.521	-3.909e-5	-3.360e-5
-0.520	-3.903e-5	-3.399e-5
-0.519	-3.896e-5	-3.438e-5
-0.518	-3.889e-5	-3.477e-5
-0.517	-3.882e-5	-3.516e-5
-0.516	-3.876e-5	-3.554e-5
-0.515	-3.869e-5	-3.593e-5
-0.514	-3.862e-5	-3.632e-5
-0.513	-3.856e-5	-3.670e-5
-0.512	-3.849e-5	-3.709e-5
-0.511	-3.842e-5	-3.747e-5
-0.510	-3.835e-5	-3.786e-5
-0.509	-3.828e-5	-3.824e-5
-0.508	-3.822e-5	-3.862e-5
-0.507	-3.815e-5	-3.900e-5
-0.506	-3.808e-5	-3.938e-5
-0.505	-3.801e-5	-3.976e-5
-0.504	-3.794e-5	-4.014e-5
-0.503	-3.787e-5	-4.052e-5
-0.502	-3.780e-5	-4.090e-5
-0.501	-3.773e-5	-4.128e-5
-0.500	-3.766e-5	-4.165e-5
-0.499	-3.759e-5	-4.203e-5
-0.498	-3.752e-5	-4.240e-5
-0.497	-3.745e-5	-4.278e-5
-0.496	-3.737e-5	-4.315e-5
-0.495	-3.730e-5	-4.353e-5
-0.494	-3.723e-5	-4.390e-5
-0.493	-3.715e-5	-4.427e-5
-0.492	-3.708e-5	-4.464e-5
-0.491	-3.700e-5	-4.501e-5
-0.490	-3.692e-5	-4.538e-5
-0.489	-3.684e-5	-4.575e-5
-0.488	-3.677e-5	-4.612e-5
-0.487	-3.669e-5	-4.648e-5
-0.486	-3.661e-5	-4.685e-5
-0.485	-3.652e-5	-4.721e-5
-0.484	-3.644e-5	-4.758e-5
-0.483	-3.636e-5	-4.794e-5
-0.482	-3.627e-5	-4.830e-5
-0.481	-3.619e-5	-4.867e-5
-0.480	-3.610e-5	-4.903e-5
-0.479	-3.601e-5	-4.939e-5
-0.478	-3.592e-5	-4.975e-5
-0.477	-3.583e-5	-5.010e-5
-0.476	-3.574e-5	-5.046e-5
-0.475	-3.565e-5	-5.082e-5
-0.474	-3.555e-5	-5.117e-5
-0.473	-3.545e-5	-5.153e-5
-0.472	-3.535e-5	-5.188e-5
-0.471	-3.525e-5	-5.223e-5
-0.470	-3.515e-5	-5.259e-5
-0.469	-3.504e-5	-5.294e-5
-0.468	-3.494e-5	-5.329e-5
-0.467	-3.483e-5	-5.363e-5
-0.466	-3.472e-5	-5.398e-5
-0.465	-3.460e-5	-5.433e-5
-0.464	-3.449e-5	-5.467e-5
-0.463	-3.437e-5	-5.502e-5
-0.462	-3.425e-5	-5.536e-5
-0.461	-3.413e-5	-5.570e-5
-0.460	-3.400e-5	-5.604e-5
-0.459	-3.387e-5	-5.638e-5
-0.458	-3.374e-5	-5.672e-5
-0.457	-3.361e-5	-5.705e-5
-0.456	-3.347e-5	-5.739e-5
-0.455	-3.333e-5	-5.772e-5
-0.454	-3.318e-5	-5.805e-5
-0.453	-3.303e-5	-5.838e-5
-0.452	-3.288e-5	-5.871e-5
-0.451	-3.272e-5	-5.904e-5
-0.450	-3.256e-5	-5.936e-5
-0.449	-3.240e-5	-5.969e-5
-0.448	-3.223e-5	-6.001e-5
-0.447	-3.205e-5	-6.033e-5
-0.446	-3.187e-5	-6.065e-5
-0.445	-3.169e-5	-6.097e-5
-0.444	-3.150e-5	-6.128e-5
-0.443	-3.131e-5	-6.159e-5
-0.442	-3.111e-5	-6.191e-5
-0.441	-3.090e-5	-6.221e-5
-0.440	-3.069e-5	-6.252e-5
-0.439	-3.048e-5	-6.283e-5
-0.438	-3.026e-5	-6.313e-5
-0.437	-3.003e-5	-6.343e-5
-0.436	-2.979e-5	-6.373e-5
-0.435	-2.955e-5	-6.402e-5
-0.434	-2.931e-5	-6.432e-5
-0.433	-2.905e-5	-6.461e-5
-0.432	-2.879e-5	-6.489e-5
-0.431	-2.852e-5	-6.518e-5
-0.430	-2.824e-5	-6.546e-5
-0.429	-2.795e-5	-6.574e-5
-0.428	-2.766e-5	-6.602e-5
-0.427	-2.735e-5	-6.629e-5
-0.426	-2.704e-5	-6.656e-5
-0.425	-2.672e-5	-6.683e-5
-0.424	-2.639e-5	-6.709e-5
-0.423	-2.604e-5	-6.735e-5
-0.422	-2.569e-5	-6.761e-5
-0.421	-2.532e-5	-6.786e-5
-0.420	-2.495e-5	-6.811e-5
-0.419	-2.456e-5	-6.836e-5
-0.418	-2.416e-5	-6.860e-5
-0.417	-2.375e-5	-6.884e-5
-0.416	-2.332e-5	-6.907e-5
-0.415	-2.288e-5	-6.930e-5
-0.414	-2.243e-5	-6.952e-5
-0.413	-2.196e-5	-6.974e-5
-0.412	-2.148e-5	-6.996e-5
-0.411	-2.099e-5	-7.017e-5
-0.410	-2.048e-5	-7.037e-5
-0.409	-1.995e-5	-7.057e-5
-0.408	-1.941e-5	-7.077e-5
-0.407	-1.886e-5	-7.095e-5
-0.406	-1.829e-5	-7.114e-5
-0.405	-1.770e-5	-7.131e-5
-0.404	-1.709e-5	-7.149e-5
-0.403	-1.647e-5	-7.165e-5
-0.402	-1.582e-5	-7.181e-5
-0.401	-1.516e-5	-7.196e-5
-0.400	-1.447e-5	-7.210e-5
-0.399	-1.377e-5	-7.224e-5
-0.398	-1.305e-5	-7.237e-5
-0.397	-1.232e-5	-7.250e-5
-0.396	-1.156e-5	-7.261e-5
-0.395	-1.079e-5	-7.272e-5
-0.394	-9.989e-6	-7.282e-5
-0.393	-9.169e-6	-7.291e-5
-0.392	-8.325e-6	-7.299e-5
-0.391	-7.461e-6	-7.307e-5
-0.390	-6.574e-6	-7.313e-5
-0.389	-5.668e-6	-7.319e-5
-0.388	-4.739e-6	-7.324e-5
-0.387	-3.792e-6	-7.328e-5
-0.386	-2.820e-6	-7.330e-5
-0.385	-1.826e-6	-7.332e-5
-0.384	-8.042e-7	-7.333e-5
-0.383	2.367e-7	-7.333e-5
-0.382	1.296e-6	-7.332e-5
-0.381	2.370e-6	-7.329e-5
-0.380	3.463e-6	-7.326e-5
-0.379	4.574e-6	-7.321e-5
-0.378	5.712e-6	-7.315e-5
-0.377	6.867e-6	-7.309e-5
-0.376	8.042e-6	-7.301e-5
-0.375	9.230e-6	-7.291e-5
-0.374	1.043e-5	-7.281e-5
-0.373	1.165e-5	-7.269e-5
-0.372	1.289e-5	-7.256e-5
-0.371	1.413e-5	-7.242e-5
-0.370	1.540e-5	-7.227e-5
-0.369	1.667e-5	-7.210e-5
-0.368	1.796e-5	-7.192e-5
-0.367	1.925e-5	-7.173e-5
-0.366	2.055e-5	-7.152e-5
-0.365	2.185e-5	-7.131e-5
-0.364	2.316e-5	-7.107e-5
-0.363	2.447e-5	-7.083e-5
-0.362	2.579e-5	-7.057e-5
-0.361	2.711e-5	-7.030e-5
-0.360	2.842e-5	-7.002e-5
-0.359	2.974e-5	-6.972e-5
-0.358	3.105e-5	-6.941e-5
-0.357	3.235e-5	-6.908e-5
-0.356	3.364e-5	-6.875e-5
-0.355	3.491e-5	-6.840e-5
-0.354	3.617e-5	-6.804e-5
-0.353	3.742e-5	-6.766e-5
-0.352	3.867e-5	-6.728e-5
-0.351	3.990e-5	-6.688e-5
-0.350	4.111e-5	-6.647e-5
-0.349	4.229e-5	-6.604e-5
-0.348	4.346e-5	-6.561e-5
-0.347	4.460e-5	-6.516e-5
-0.346	4.572e-5	-6.471e-5
-0.345	4.681e-5	-6.424e-5
-0.344	4.787e-5	-6.376e-5
-0.343	4.891e-5	-6.327e-5
-0.342	4.992e-5	-6.277e-5
-0.341	5.089e-5	-6.226e-5
-0.340	5.184e-5	-6.174e-5
-0.339	5.275e-5	-6.122e-5
-0.338	5.364e-5	-6.068e-5
-0.337	5.450e-5	-6.013e-5
-0.336	5.532e-5	-5.958e-5
-0.335	5.611e-5	-5.902e-5
-0.334	5.686e-5	-5.845e-5
-0.333	5.758e-5	-5.788e-5
-0.332	5.827e-5	-5.729e-5
-0.331	5.892e-5	-5.670e-5
-0.330	5.954e-5	-5.611e-5
-0.329	6.012e-5	-5.551e-5
-0.328	6.067e-5	-5.490e-5
-0.327	6.119e-5	-5.429e-5
-0.326	6.167e-5	-5.367e-5
-0.325	6.212e-5	-5.305e-5
-0.324	6.253e-5	-5.243e-5
-0.323	6.291e-5	-5.180e-5
-0.322	6.326e-5	-5.116e-5
-0.321	6.359e-5	-5.053e-5
-0.320	6.388e-5	-4.989e-5
-0.319	6.414e-5	-4.925e-5
-0.318	6.436e-5	-4.860e-5
-0.317	6.456e-5	-4.796e-5
-0.316	6.474e-5	-4.731e-5
-0.315	6.488e-5	-4.666e-5
-0.314	6.501e-5	-4.601e-5
-0.313	6.511e-5	-4.536e-5
-0.312	6.518e-5	-4.471e-5
-0.311	6.524e-5	-4.406e-5
-0.310	6.527e-5	-4.340e-5
-0.309	6.528e-5	-4.275e-5
-0.308	6.527e-5	-4.210e-5
-0.307	6.525e-5	-4.145e-5
-0.306	6.521e-5	-4.079e-5
-0.305	6.515e-5	-4.014e-5
-0.304	6.506e-5	-3.949e-5
-0.303	6.496e-5	-3.884e-5
-0.302	6.485e-5	-3.819e-5
-0.301	6.473e-5	-3.755e-5
-0.300	6.459e-5	-3.690e-5
-0.299	6.444e-5	-3.626e-5
-0.298	6.428e-5	-3.561e-5
-0.297	6.411e-5	-3.497e-5
-0.296	6.392e-5	-3.433e-5
-0.295	6.373e-5	-3.370e-5
-0.294	6.354e-5	-3.306e-5
-0.293	6.333e-5	-3.243e-5
-0.292	6.312e-5	-3.180e-5
-0.291	6.290e-5	-3.117e-5
-0.290	6.267e-5	-3.054e-5
-0.289	6.244e-5	-2.992e-5
-0.288	6.220e-5	-2.929e-5
-0.287	6.196e-5	-2.867e-5
-0.286	6.172e-5	-2.806e-5
-0.285	6.148e-5	-2.744e-5
-0.284	6.123e-5	-2.683e-5
-0.283	6.098e-5	-2.622e-5
-0.282	6.074e-5	-2.561e-5
-0.281	6.049e-5	-2.501e-5
-0.280	6.024e-5	-2.441e-5
-0.279	5.998e-5	-2.381e-5
-0.278	5.973e-5	-2.321e-5
-0.277	5.948e-5	-2.261e-5
-0.276	5.923e-5	-2.202e-5
-0.275	5.898e-5	-2.143e-5
-0.274	5.873e-5	-2.084e-5
-0.273	5.847e-5	-2.026e-5
-0.272	5.823e-5	-1.968e-5
-0.271	5.798e-5	-1.910e-5
-0.270	5.773e-5	-1.852e-5
-0.269	5.749e-5	-1.795e-5
-0.268	5.725e-5	-1.737e-5
-0.267	5.701e-5	-1.680e-5
-0.266	5.677e-5	-1.623e-5
-0.265	5.654e-5	-1.567e-5
-0.264	5.630e-5	-1.511e-5
-0.263	5.607e-5	-1.455e-5
-0.262	5.584e-5	-1.399e-5
-0.261	5.562e-5	-1.343e-5
-0.260	5.539e-5	-1.288e-5
-0.259	5.517e-5	-1.233e-5
-0.258	5.494e-5	-1.178e-5
-0.257	5.472e-5	-1.123e-5
-0.256	5.451e-5	-1.068e-5
-0.255	5.429e-5	-1.014e-5
-0.254	5.408e-5	-9.600e-6
-0.253	5.387e-5	-9.061e-6
-0.252	5.366e-5	-8.525e-6
-0.251	5.345e-5	-7.990e-6
-0.250	5.325e-5	-7.458e-6
-0.249	5.304e-5	-6.927e-6
-0.248	5.284e-5	-6.399e-6
-0.247	5.264e-5	-5.873e-6
-0.246	5.244e-5	-5.348e-6
-0.245	5.224e-5	-4.826e-6
-0.244	5.205e-5	-4.305e-6
-0.243	5.185e-5	-3.787e-6
-0.242	5.166e-5	-3.270e-6
-0.241	5.146e-5	-2.756e-6
-0.240	5.127e-5	-2.243e-6
-0.239	5.108e-5	-1.732e-6
-0.238	5.089e-5	-1.223e-6
-0.237	5.071e-5	-7.162e-7
-0.236	5.052e-5	-2.110e-7
-0.235	5.033e-5	2.922e-7
-0.234	5.014e-5	7.936e-7
-0.233	4.994e-5	1.293e-6
-0.232	4.975e-5	1.791e-6
-0.231	4.956e-5	2.286e-6
-0.230	4.937e-5	2.780e-6
-0.229	4.918e-5	3.272e-6
-0.228	4.899e-5	3.762e-6
-0.227	4.880e-5	4.250e-6
-0.226	4.861e-5	4.736e-6
-0.225	4.842e-5	5.220e-6
-0.224	4.823e-5	5.702e-6
-0.223	4.803e-5	6.183e-6
-0.222	4.784e-5	6.661e-6
-0.221	4.765e-5	7.137e-6
-0.220	4.745e-5	7.612e-6
-0.219	4.726e-5	8.085e-6
-0.218	4.706e-5	8.555e-6
-0.217	4.686e-5	9.024e-6
-0.216	4.666e-5	9.490e-6
-0.215	4.646e-5	9.955e-6
-0.214	4.627e-5	1.042e-5
-0.213	4.607e-5	1.088e-5
-0.212	4.587e-5	1.134e-5
-0.211	4.567e-5	1.179e-5
-0.210	4.547e-5	1.225e-5
-0.209	4.527e-5	1.270e-5
-0.208	4.507e-5	1.315e-5
-0.207	4.487e-5	1.360e-5
-0.206	4.466e-5	1.405e-5
-0.205	4.446e-5	1.449e-5
-0.204	4.426e-5	1.493e-5
-0.203	4.406e-5	1.537e-5
-0.202	4.385e-5	1.581e-5
-0.201	4.365e-5	1.625e-5
-0.200	4.344e-5	1.668e-5
-0.199	4.324e-5	1.712e-5
-0.198	4.304e-5	1.755e-5
-0.197	4.283e-5	1.798e-5
-0.196	4.263e-5	1.840e-5
-0.195	4.242e-5	1.883e-5
-0.194	4.222e-5	1.925e-5
-0.193	4.202e-5	1.967e-5
-0.192	4.181e-5	2.009e-5
-0.191	4.161e-5	2.050e-5
-0.190	4.141e-5	2.092e-5
-0.189	4.120e-5	2.133e-5
-0.188	4.100e-5	2.174e-5
-0.187	4.080e-5	2.215e-5
-0.186	4.060e-5	2.255e-5
-0.185	4.040e-5	2.296e-5
-0.184	4.020e-5	2.336e-5
-0.183	4.000e-5	2.376e-5
-0.182	3.980e-5	2.416e-5
-0.181	3.960e-5	2.455e-5
-0.180	3.941e-5	2.495e-5
-0.179	3.921e-5	2.534e-5
-0.178	3.901e-5	2.573e-5
-0.177	3.881e-5	2.612e-5
-0.176	3.862e-5	2.650e-5
-0.175	3.842e-5	2.689e-5
-0.174	3.823e-5	2.727e-5
-0.173	3.804e-5	2.765e-5
-0.172	3.784e-5	2.803e-5
-0.171	3.765e-5	2.841e-5
-0.170	3.746e-5	2.878e-5
-0.169	3.728e-5	2.915e-5
-0.168	3.709e-5	2.952e-5
-0.167	3.690e-5	2.989e-5
-0.166	3.672e-5	3.026e-5
-0.165	3.654e-5	3.062e-5
-0.164	3.635e-5	3.099e-5
-0.163	3.617e-5	3.135e-5
-0.162	3.599e-5	3.171e-5
-0.161	3.581e-5	3.207e-5
-0.160	3.563e-5	3.242e-5
-0.159	3.546e-5	3.278e-5
-0.158	3.528e-5	3.313e-5
-0.157	3.511e-5	3.348e-5
-0.156	3.494e-5	3.383e-5
-0.155	3.477e-5	3.418e-5
-0.154	3.460e-5	3.453e-5
-0.153	3.443e-5	3.487e-5
-0.152	3.426e-5	3.521e-5
-0.151	3.410e-5	3.555e-5
-0.150	3.393e-5	3.589e-5
-0.149	3.377e-5	3.623e-5
-0.148	3.361e-5	3.657e-5
-0.147	3.345e-5	3.690e-5
-0.146	3.329e-5	3.723e-5
-0.145	3.313e-5	3.757e-5
-0.144	3.298e-5	3.790e-5
-0.143	3.283e-5	3.822e-5
-0.142	3.267e-5	3.855e-5
-0.141	3.252e-5	3.888e-5
-0.140	3.237e-5	3.920e-5
-0.139	3.223e-5	3.952e-5
-0.138	3.208e-5	3.984e-5
-0.137	3.194e-5	4.016e-5
-0.136	3.180e-5	4.048e-5
-0.135	3.166e-5	4.080e-5
-0.134	3.152e-5	4.111e-5
-0.133	3.138e-5	4.143e-5
-0.132	3.124e-5	4.174e-5
-0.131	3.111e-5	4.205e-5
-0.130	3.098e-5	4.236e-5
-0.129	3.085e-5	4.267e-5
-0.128	3.072e-5	4.297e-5
-0.127	3.059e-5	4.328e-5
-0.126	3.047e-5	4.359e-5
-0.125	3.034e-5	4.389e-5
-0.124	3.022e-5	4.419e-5
-0.123	3.011e-5	4.449e-5
-0.122	2.999e-5	4.479e-5
-0.121	2.987e-5	4.509e-5
-0.120	2.976e-5	4.539e-5
-0.119	2.965e-5	4.568e-5
-0.118	2.954e-5	4.598e-5
-0.117	2.943e-5	4.627e-5
-0.116	2.932e-5	4.657e-5
-0.115	2.922e-5	4.686e-5
-0.114	2.912e-5	4.715e-5
-0.113	2.901e-5	4.744e-5
-0.112	2.891e-5	4.773e-5
-0.111	2.881e-5	4.802e-5
-0.110	2.871e-5	4.831e-5
-0.109	2.861e-5	4.859e-5
-0.108	2.851e-5	4.888e-5
-0.107	2.841e-5	4.916e-5
-0.106	2.832e-5	4.944e-5
-0.105	2.822e-5	4.973e-5
-0.104	2.813e-5	5.001e-5
-0.103	2.803e-5	5.029e-5
-0.102	2.793e-5	5.057e-5
-0.101	2.784e-5	5.085e-5
-0.100	2.774e-5	5.112e-5
-0.099	2.765e-5	5.140e-5
-0.098	2.755e-5	5.167e-5
-0.097	2.745e-5	5.195e-5
-0.096	2.736e-5	5.222e-5
-0.095	2.726e-5	5.250e-5
-0.094	2.716e-5	5.277e-5
-0.093	2.706e-5	5.304e-5
-0.092	2.697e-5	5.331e-5
-0.091	2.687e-5	5.358e-5
-0.090	2.677e-5	5.384e-5
-0.089	2.667e-5	5.411e-5
-0.088	2.657e-5	5.438e-5
-0.087	2.647e-5	5.464e-5
-0.086	2.637e-5	5.490e-5
-0.085	2.627e-5	5.517e-5
-0.084	2.617e-5	5.543e-5
-0.083	2.607e-5	5.569e-5
-0.082	2.596e-5	5.595e-5
-0.081	2.586e-5	5.621e-5
-0.080	2.576e-5	5.647e-5
-0.079	2.566e-5	5.672e-5
-0.078	2.556e-5	5.698e-5
-0.077	2.546e-5	5.723e-5
-0.076	2.536e-5	5.749e-5
-0.075	2.526e-5	5.774e-5
-0.074	2.516e-5	5.799e-5
-0.073	2.506e-5	5.824e-5
-0.072	2.497e-5	5.849e-5
-0.071	2.487e-5	5.874e-5
-0.070	2.477e-5	5.899e-5
-0.069	2.467e-5	5.923e-5
-0.068	2.457e-5	5.948e-5
-0.067	2.448e-5	5.972e-5
-0.066	2.438e-5	5.997e-5
-0.065	2.428e-5	6.021e-5
-0.064	2.419e-5	6.045e-5
-0.063	2.410e-5	6.069e-5
-0.062	2.400e-5	6.093e-5
-0.061	2.391e-5	6.117e-5
-0.060	2.382e-5	6.141e-5
-0.059	2.372e-5	6.165e-5
-0.058	2.363e-5	6.188e-5
-0.057	2.354e-5	6.212e-5
-0.056	2.345e-5	6.235e-5
-0.055	2.336e-5	6.259e-5
-0.054	2.327e-5	6.282e-5
-0.053	2.318e-5	6.305e-5
-0.052	2.309e-5	6.328e-5
-0.051	2.301e-5	6.351e-5
-0.050	2.292e-5	6.374e-5
-0.049	2.284e-5	6.397e-5
-0.048	2.275e-5	6.420e-5
-0.047	2.267e-5	6.443e-5
-0.046	2.259e-5	6.465e-5
-0.045	2.250e-5	6.488e-5
-0.044	2.242e-5	6.510e-5
-0.043	2.234e-5	6.532e-5
-0.042	2.226e-5	6.555e-5
-0.041	2.218e-5	6.577e-5
-0.040	2.210e-5	6.599e-5
-0.039	2.202e-5	6.621e-5
-0.038	2.194e-5	6.643e-5
-0.037	2.186e-5	6.665e-5
-0.036	2.179e-5	6.687e-5
-0.035	2.171e-5	6.708e-5
-0.034	2.164e-5	6.730e-5
-0.033	2.156e-5	6.751e-5
-0.032	2.149e-5	6.773e-5
-0.031	2.141e-5	6.794e-5
-0.030	2.134e-5	6.816e-5
-0.029	2.127e-5	6.837e-5
-0.028	2.120e-5	6.858e-5
-0.027	2.112e-5	6.879e-5
-0.026	2.105e-5	6.900e-5
-0.025	2.098e-5	6.921e-5
-0.024	2.091e-5	6.942e-5
-0.023	2.084e-5	6.963e-5
-0.022	2.077e-5	6.984e-5
-0.021	2.070e-5	7.005e-5
-0.020	2.064e-5	7.025e-5
-0.019	2.057e-5	7.046e-5
-0.018	2.050e-5	7.066e-5
-0.017	2.043e-5	7.087e-5
-0.016	2.037e-5	7.107e-5
-0.015	2.030e-5	7.127e-5
-0.014	2.024e-5	7.148e-5
-0.013	2.017e-5	7.168e-5
-0.012	2.011e-5	7.188e-5
-0.011	2.004e-5	7.208e-5
-0.010	1.998e-5	7.228e-5
-0.009	1.992e-5	7.248e-5
-0.008	1.985e-5	7.268e-5
-0.007	1.979e-5	7.287e-5
-0.006	1.973e-5	7.307e-5
-0.005	1.967e-5	7.327e-5
-0.004	1.961e-5	7.346e-5
-0.003	1.955e-5	7.366e-5
-0.002	1.949e-5	7.385e-5
-0.001	1.943e-5	7.405e-5
