Nov. 4, 2019   15:08:30
Cyclic Voltammetry
File: c:\users\alex\desktop\living in denmark\dtu master\4th semester-thesis\thesis\thesis alexandros pasadakis\data_thesis\quinoxaline\cv\dsdmqui_cv\ph_2\cv_2,3-dsqui_1m_kcl_10mm_hcl_scan_rates_005.txt
Data Source:  Experiment
Instrument Model:  CHI760E
Data Proc:  Smoothing
Header: 
Note: 

Init E (V) = 0
High E (V) = 0
Low E (V) = -0.6
Init P/N = N
Scan Rate (V/s) = 0.25
Segment = 6
Sample Interval (V) = 0.001
Quiet Time (sec) = 2
Sensitivity (A/V) = 1e-4

Segment 1:
Ep = -0.380V
Eh = -0.329V
ip = -1.616e-4A

Segment 2:
Ep = -0.310V
Eh = -0.370V
ip = 1.179e-4A

Segment 3:
Ep = -0.380V
Eh = -0.330V
ip = -1.486e-4A

Segment 4:
Ep = -0.310V
Eh = -0.370V
ip = 1.173e-4A

Segment 5:
Ep = -0.380V
Eh = -0.329V
ip = -1.461e-4A

Segment 6:
Ep = -0.310V
Eh = -0.369V
ip = 1.160e-4A

Potential/V	Current/A

0.000	1.401e-6	5.603e-9
-0.001	1.202e-6	1.041e-8
-0.002	1.047e-6	1.460e-8
-0.003	9.361e-7	1.834e-8
-0.004	8.870e-7	2.189e-8
-0.005	8.628e-7	2.534e-8
-0.006	8.428e-7	2.871e-8
-0.007	8.123e-7	3.196e-8
-0.008	7.848e-7	3.510e-8
-0.009	7.605e-7	3.814e-8
-0.010	7.397e-7	4.110e-8
-0.011	7.192e-7	4.398e-8
-0.012	7.006e-7	4.678e-8
-0.013	6.836e-7	4.952e-8
-0.014	6.661e-7	5.218e-8
-0.015	6.485e-7	5.477e-8
-0.016	6.280e-7	5.729e-8
-0.017	6.070e-7	5.971e-8
-0.018	5.908e-7	6.208e-8
-0.019	5.776e-7	6.439e-8
-0.020	5.656e-7	6.665e-8
-0.021	5.530e-7	6.886e-8
-0.022	5.371e-7	7.101e-8
-0.023	5.206e-7	7.309e-8
-0.024	5.055e-7	7.512e-8
-0.025	4.905e-7	7.708e-8
-0.026	4.739e-7	7.897e-8
-0.027	4.580e-7	8.081e-8
-0.028	4.454e-7	8.259e-8
-0.029	4.338e-7	8.432e-8
-0.030	4.194e-7	8.600e-8
-0.031	4.030e-7	8.761e-8
-0.032	3.839e-7	8.915e-8
-0.033	3.658e-7	9.061e-8
-0.034	3.509e-7	9.201e-8
-0.035	3.370e-7	9.336e-8
-0.036	3.202e-7	9.464e-8
-0.037	3.045e-7	9.586e-8
-0.038	2.908e-7	9.702e-8
-0.039	2.789e-7	9.814e-8
-0.040	2.662e-7	9.920e-8
-0.041	2.530e-7	1.002e-7
-0.042	2.379e-7	1.012e-7
-0.043	2.214e-7	1.021e-7
-0.044	2.039e-7	1.029e-7
-0.045	1.867e-7	1.036e-7
-0.046	1.697e-7	1.043e-7
-0.047	1.578e-7	1.049e-7
-0.048	1.502e-7	1.055e-7
-0.049	1.405e-7	1.061e-7
-0.050	1.264e-7	1.066e-7
-0.051	1.073e-7	1.070e-7
-0.052	8.661e-8	1.074e-7
-0.053	6.820e-8	1.076e-7
-0.054	5.014e-8	1.078e-7
-0.055	3.235e-8	1.080e-7
-0.056	1.317e-8	1.080e-7
-0.057	-3.493e-9	1.080e-7
-0.058	-1.598e-8	1.079e-7
-0.059	-2.727e-8	1.078e-7
-0.060	-4.408e-8	1.077e-7
-0.061	-6.479e-8	1.074e-7
-0.062	-9.067e-8	1.070e-7
-0.063	-1.128e-7	1.066e-7
-0.064	-1.331e-7	1.061e-7
-0.065	-1.522e-7	1.054e-7
-0.066	-1.741e-7	1.048e-7
-0.067	-1.972e-7	1.040e-7
-0.068	-2.207e-7	1.031e-7
-0.069	-2.428e-7	1.021e-7
-0.070	-2.679e-7	1.010e-7
-0.071	-2.941e-7	9.986e-8
-0.072	-3.208e-7	9.858e-8
-0.073	-3.440e-7	9.720e-8
-0.074	-3.651e-7	9.574e-8
-0.075	-3.896e-7	9.418e-8
-0.076	-4.201e-7	9.250e-8
-0.077	-4.532e-7	9.069e-8
-0.078	-4.867e-7	8.874e-8
-0.079	-5.159e-7	8.668e-8
-0.080	-5.474e-7	8.449e-8
-0.081	-5.830e-7	8.216e-8
-0.082	-6.197e-7	7.968e-8
-0.083	-6.551e-7	7.706e-8
-0.084	-6.877e-7	7.431e-8
-0.085	-7.182e-7	7.143e-8
-0.086	-7.552e-7	6.841e-8
-0.087	-7.945e-7	6.524e-8
-0.088	-8.325e-7	6.191e-8
-0.089	-8.719e-7	5.842e-8
-0.090	-9.109e-7	5.477e-8
-0.091	-9.494e-7	5.098e-8
-0.092	-9.906e-7	4.701e-8
-0.093	-1.029e-6	4.290e-8
-0.094	-1.065e-6	3.864e-8
-0.095	-1.105e-6	3.422e-8
-0.096	-1.149e-6	2.963e-8
-0.097	-1.193e-6	2.486e-8
-0.098	-1.237e-6	1.991e-8
-0.099	-1.276e-6	1.481e-8
-0.100	-1.313e-6	9.554e-9
-0.101	-1.352e-6	4.147e-9
-0.102	-1.391e-6	-1.417e-9
-0.103	-1.427e-6	-7.125e-9
-0.104	-1.463e-6	-1.298e-8
-0.105	-1.499e-6	-1.898e-8
-0.106	-1.536e-6	-2.512e-8
-0.107	-1.573e-6	-3.141e-8
-0.108	-1.603e-6	-3.782e-8
-0.109	-1.628e-6	-4.434e-8
-0.110	-1.654e-6	-5.095e-8
-0.111	-1.680e-6	-5.767e-8
-0.112	-1.705e-6	-6.449e-8
-0.113	-1.726e-6	-7.140e-8
-0.114	-1.740e-6	-7.836e-8
-0.115	-1.755e-6	-8.538e-8
-0.116	-1.774e-6	-9.247e-8
-0.117	-1.797e-6	-9.966e-8
-0.118	-1.819e-6	-1.069e-7
-0.119	-1.834e-6	-1.143e-7
-0.120	-1.845e-6	-1.217e-7
-0.121	-1.854e-6	-1.291e-7
-0.122	-1.859e-6	-1.365e-7
-0.123	-1.862e-6	-1.440e-7
-0.124	-1.865e-6	-1.514e-7
-0.125	-1.867e-6	-1.589e-7
-0.126	-1.870e-6	-1.664e-7
-0.127	-1.873e-6	-1.739e-7
-0.128	-1.870e-6	-1.813e-7
-0.129	-1.866e-6	-1.888e-7
-0.130	-1.864e-6	-1.963e-7
-0.131	-1.862e-6	-2.037e-7
-0.132	-1.862e-6	-2.112e-7
-0.133	-1.861e-6	-2.186e-7
-0.134	-1.856e-6	-2.260e-7
-0.135	-1.850e-6	-2.334e-7
-0.136	-1.845e-6	-2.408e-7
-0.137	-1.838e-6	-2.482e-7
-0.138	-1.834e-6	-2.555e-7
-0.139	-1.832e-6	-2.628e-7
-0.140	-1.832e-6	-2.701e-7
-0.141	-1.832e-6	-2.775e-7
-0.142	-1.832e-6	-2.848e-7
-0.143	-1.828e-6	-2.921e-7
-0.144	-1.825e-6	-2.994e-7
-0.145	-1.823e-6	-3.067e-7
-0.146	-1.825e-6	-3.140e-7
-0.147	-1.824e-6	-3.213e-7
-0.148	-1.820e-6	-3.286e-7
-0.149	-1.815e-6	-3.358e-7
-0.150	-1.815e-6	-3.431e-7
-0.151	-1.821e-6	-3.504e-7
-0.152	-1.827e-6	-3.577e-7
-0.153	-1.831e-6	-3.650e-7
-0.154	-1.833e-6	-3.723e-7
-0.155	-1.835e-6	-3.797e-7
-0.156	-1.841e-6	-3.870e-7
-0.157	-1.851e-6	-3.944e-7
-0.158	-1.859e-6	-4.019e-7
-0.159	-1.867e-6	-4.093e-7
-0.160	-1.874e-6	-4.168e-7
-0.161	-1.881e-6	-4.244e-7
-0.162	-1.888e-6	-4.319e-7
-0.163	-1.896e-6	-4.395e-7
-0.164	-1.907e-6	-4.471e-7
-0.165	-1.923e-6	-4.548e-7
-0.166	-1.940e-6	-4.626e-7
-0.167	-1.954e-6	-4.704e-7
-0.168	-1.965e-6	-4.783e-7
-0.169	-1.978e-6	-4.862e-7
-0.170	-1.995e-6	-4.942e-7
-0.171	-2.018e-6	-5.022e-7
-0.172	-2.043e-6	-5.104e-7
-0.173	-2.066e-6	-5.187e-7
-0.174	-2.088e-6	-5.270e-7
-0.175	-2.113e-6	-5.355e-7
-0.176	-2.139e-6	-5.440e-7
-0.177	-2.166e-6	-5.527e-7
-0.178	-2.190e-6	-5.614e-7
-0.179	-2.211e-6	-5.703e-7
-0.180	-2.235e-6	-5.792e-7
-0.181	-2.261e-6	-5.883e-7
-0.182	-2.290e-6	-5.974e-7
-0.183	-2.322e-6	-6.067e-7
-0.184	-2.358e-6	-6.162e-7
-0.185	-2.395e-6	-6.257e-7
-0.186	-2.435e-6	-6.355e-7
-0.187	-2.473e-6	-6.454e-7
-0.188	-2.511e-6	-6.554e-7
-0.189	-2.549e-6	-6.656e-7
-0.190	-2.593e-6	-6.760e-7
-0.191	-2.637e-6	-6.865e-7
-0.192	-2.684e-6	-6.973e-7
-0.193	-2.730e-6	-7.082e-7
-0.194	-2.780e-6	-7.193e-7
-0.195	-2.832e-6	-7.306e-7
-0.196	-2.889e-6	-7.422e-7
-0.197	-2.945e-6	-7.540e-7
-0.198	-3.003e-6	-7.660e-7
-0.199	-3.062e-6	-7.782e-7
-0.200	-3.123e-6	-7.907e-7
-0.201	-3.184e-6	-8.035e-7
-0.202	-3.245e-6	-8.164e-7
-0.203	-3.306e-6	-8.297e-7
-0.204	-3.371e-6	-8.431e-7
-0.205	-3.443e-6	-8.569e-7
-0.206	-3.522e-6	-8.710e-7
-0.207	-3.603e-6	-8.854e-7
-0.208	-3.683e-6	-9.001e-7
-0.209	-3.762e-6	-9.152e-7
-0.210	-3.840e-6	-9.306e-7
-0.211	-3.924e-6	-9.462e-7
-0.212	-4.014e-6	-9.623e-7
-0.213	-4.106e-6	-9.787e-7
-0.214	-4.198e-6	-9.955e-7
-0.215	-4.292e-6	-1.013e-6
-0.216	-4.387e-6	-1.030e-6
-0.217	-4.485e-6	-1.048e-6
-0.218	-4.586e-6	-1.067e-6
-0.219	-4.690e-6	-1.085e-6
-0.220	-4.796e-6	-1.104e-6
-0.221	-4.908e-6	-1.124e-6
-0.222	-5.024e-6	-1.144e-6
-0.223	-5.144e-6	-1.165e-6
-0.224	-5.265e-6	-1.186e-6
-0.225	-5.391e-6	-1.207e-6
-0.226	-5.517e-6	-1.229e-6
-0.227	-5.646e-6	-1.252e-6
-0.228	-5.778e-6	-1.275e-6
-0.229	-5.913e-6	-1.299e-6
-0.230	-6.050e-6	-1.323e-6
-0.231	-6.193e-6	-1.348e-6
-0.232	-6.336e-6	-1.373e-6
-0.233	-6.485e-6	-1.399e-6
-0.234	-6.637e-6	-1.426e-6
-0.235	-6.798e-6	-1.453e-6
-0.236	-6.966e-6	-1.481e-6
-0.237	-7.135e-6	-1.509e-6
-0.238	-7.302e-6	-1.538e-6
-0.239	-7.472e-6	-1.568e-6
-0.240	-7.649e-6	-1.599e-6
-0.241	-7.835e-6	-1.630e-6
-0.242	-8.030e-6	-1.662e-6
-0.243	-8.226e-6	-1.695e-6
-0.244	-8.422e-6	-1.729e-6
-0.245	-8.622e-6	-1.763e-6
-0.246	-8.827e-6	-1.799e-6
-0.247	-9.040e-6	-1.835e-6
-0.248	-9.257e-6	-1.872e-6
-0.249	-9.482e-6	-1.910e-6
-0.250	-9.713e-6	-1.949e-6
-0.251	-9.951e-6	-1.989e-6
-0.252	-1.019e-5	-2.029e-6
-0.253	-1.044e-5	-2.071e-6
-0.254	-1.069e-5	-2.114e-6
-0.255	-1.094e-5	-2.158e-6
-0.256	-1.121e-5	-2.202e-6
-0.257	-1.149e-5	-2.248e-6
-0.258	-1.177e-5	-2.295e-6
-0.259	-1.206e-5	-2.344e-6
-0.260	-1.236e-5	-2.393e-6
-0.261	-1.267e-5	-2.444e-6
-0.262	-1.299e-5	-2.496e-6
-0.263	-1.333e-5	-2.549e-6
-0.264	-1.367e-5	-2.604e-6
-0.265	-1.401e-5	-2.660e-6
-0.266	-1.437e-5	-2.717e-6
-0.267	-1.474e-5	-2.776e-6
-0.268	-1.512e-5	-2.837e-6
-0.269	-1.551e-5	-2.899e-6
-0.270	-1.592e-5	-2.962e-6
-0.271	-1.634e-5	-3.028e-6
-0.272	-1.678e-5	-3.095e-6
-0.273	-1.724e-5	-3.164e-6
-0.274	-1.770e-5	-3.235e-6
-0.275	-1.819e-5	-3.307e-6
-0.276	-1.869e-5	-3.382e-6
-0.277	-1.921e-5	-3.459e-6
-0.278	-1.974e-5	-3.538e-6
-0.279	-2.030e-5	-3.619e-6
-0.280	-2.088e-5	-3.703e-6
-0.281	-2.148e-5	-3.789e-6
-0.282	-2.211e-5	-3.877e-6
-0.283	-2.276e-5	-3.968e-6
-0.284	-2.343e-5	-4.062e-6
-0.285	-2.413e-5	-4.158e-6
-0.286	-2.486e-5	-4.258e-6
-0.287	-2.562e-5	-4.360e-6
-0.288	-2.640e-5	-4.466e-6
-0.289	-2.722e-5	-4.575e-6
-0.290	-2.807e-5	-4.687e-6
-0.291	-2.895e-5	-4.803e-6
-0.292	-2.987e-5	-4.922e-6
-0.293	-3.083e-5	-5.046e-6
-0.294	-3.182e-5	-5.173e-6
-0.295	-3.286e-5	-5.304e-6
-0.296	-3.394e-5	-5.440e-6
-0.297	-3.507e-5	-5.580e-6
-0.298	-3.625e-5	-5.725e-6
-0.299	-3.747e-5	-5.875e-6
-0.300	-3.874e-5	-6.030e-6
-0.301	-4.007e-5	-6.190e-6
-0.302	-4.145e-5	-6.356e-6
-0.303	-4.288e-5	-6.528e-6
-0.304	-4.436e-5	-6.705e-6
-0.305	-4.591e-5	-6.889e-6
-0.306	-4.752e-5	-7.079e-6
-0.307	-4.919e-5	-7.276e-6
-0.308	-5.092e-5	-7.479e-6
-0.309	-5.272e-5	-7.690e-6
-0.310	-5.457e-5	-7.909e-6
-0.311	-5.649e-5	-8.134e-6
-0.312	-5.847e-5	-8.368e-6
-0.313	-6.051e-5	-8.610e-6
-0.314	-6.261e-5	-8.861e-6
-0.315	-6.478e-5	-9.120e-6
-0.316	-6.701e-5	-9.388e-6
-0.317	-6.931e-5	-9.665e-6
-0.318	-7.167e-5	-9.952e-6
-0.319	-7.408e-5	-1.025e-5
-0.320	-7.655e-5	-1.055e-5
-0.321	-7.906e-5	-1.087e-5
-0.322	-8.163e-5	-1.120e-5
-0.323	-8.424e-5	-1.153e-5
-0.324	-8.689e-5	-1.188e-5
-0.325	-8.958e-5	-1.224e-5
-0.326	-9.230e-5	-1.261e-5
-0.327	-9.506e-5	-1.299e-5
-0.328	-9.785e-5	-1.338e-5
-0.329	-1.007e-4	-1.378e-5
-0.330	-1.035e-4	-1.420e-5
-0.331	-1.063e-4	-1.462e-5
-0.332	-1.091e-4	-1.506e-5
-0.333	-1.120e-4	-1.551e-5
-0.334	-1.148e-4	-1.597e-5
-0.335	-1.176e-4	-1.644e-5
-0.336	-1.205e-4	-1.692e-5
-0.337	-1.232e-4	-1.741e-5
-0.338	-1.260e-4	-1.792e-5
-0.339	-1.288e-4	-1.843e-5
-0.340	-1.315e-4	-1.896e-5
-0.341	-1.342e-4	-1.949e-5
-0.342	-1.368e-4	-2.004e-5
-0.343	-1.395e-4	-2.060e-5
-0.344	-1.420e-4	-2.117e-5
-0.345	-1.446e-4	-2.175e-5
-0.346	-1.470e-4	-2.233e-5
-0.347	-1.494e-4	-2.293e-5
-0.348	-1.518e-4	-2.354e-5
-0.349	-1.541e-4	-2.415e-5
-0.350	-1.563e-4	-2.478e-5
-0.351	-1.585e-4	-2.541e-5
-0.352	-1.607e-4	-2.606e-5
-0.353	-1.627e-4	-2.671e-5
-0.354	-1.647e-4	-2.737e-5
-0.355	-1.667e-4	-2.803e-5
-0.356	-1.685e-4	-2.871e-5
-0.357	-1.703e-4	-2.939e-5
-0.358	-1.720e-4	-3.008e-5
-0.359	-1.736e-4	-3.077e-5
-0.360	-1.752e-4	-3.147e-5
-0.361	-1.767e-4	-3.218e-5
-0.362	-1.781e-4	-3.289e-5
-0.363	-1.794e-4	-3.361e-5
-0.364	-1.806e-4	-3.433e-5
-0.365	-1.818e-4	-3.506e-5
-0.366	-1.829e-4	-3.579e-5
-0.367	-1.839e-4	-3.653e-5
-0.368	-1.848e-4	-3.726e-5
-0.369	-1.857e-4	-3.801e-5
-0.370	-1.864e-4	-3.875e-5
-0.371	-1.871e-4	-3.950e-5
-0.372	-1.877e-4	-4.025e-5
-0.373	-1.883e-4	-4.101e-5
-0.374	-1.888e-4	-4.176e-5
-0.375	-1.891e-4	-4.252e-5
-0.376	-1.894e-4	-4.327e-5
-0.377	-1.896e-4	-4.403e-5
-0.378	-1.898e-4	-4.479e-5
-0.379	-1.899e-4	-4.555e-5
-0.380	-1.899e-4	-4.631e-5
-0.381	-1.898e-4	-4.707e-5
-0.382	-1.897e-4	-4.783e-5
-0.383	-1.895e-4	-4.859e-5
-0.384	-1.893e-4	-4.935e-5
-0.385	-1.890e-4	-5.010e-5
-0.386	-1.886e-4	-5.086e-5
-0.387	-1.882e-4	-5.161e-5
-0.388	-1.877e-4	-5.236e-5
-0.389	-1.872e-4	-5.311e-5
-0.390	-1.866e-4	-5.385e-5
-0.391	-1.860e-4	-5.460e-5
-0.392	-1.854e-4	-5.534e-5
-0.393	-1.847e-4	-5.608e-5
-0.394	-1.839e-4	-5.681e-5
-0.395	-1.832e-4	-5.755e-5
-0.396	-1.824e-4	-5.828e-5
-0.397	-1.815e-4	-5.900e-5
-0.398	-1.807e-4	-5.973e-5
-0.399	-1.798e-4	-6.044e-5
-0.400	-1.789e-4	-6.116e-5
-0.401	-1.779e-4	-6.187e-5
-0.402	-1.770e-4	-6.258e-5
-0.403	-1.760e-4	-6.328e-5
-0.404	-1.750e-4	-6.398e-5
-0.405	-1.740e-4	-6.468e-5
-0.406	-1.730e-4	-6.537e-5
-0.407	-1.720e-4	-6.606e-5
-0.408	-1.710e-4	-6.674e-5
-0.409	-1.700e-4	-6.742e-5
-0.410	-1.689e-4	-6.810e-5
-0.411	-1.679e-4	-6.877e-5
-0.412	-1.668e-4	-6.944e-5
-0.413	-1.658e-4	-7.010e-5
-0.414	-1.647e-4	-7.076e-5
-0.415	-1.637e-4	-7.141e-5
-0.416	-1.626e-4	-7.207e-5
-0.417	-1.616e-4	-7.271e-5
-0.418	-1.606e-4	-7.335e-5
-0.419	-1.595e-4	-7.399e-5
-0.420	-1.585e-4	-7.463e-5
-0.421	-1.575e-4	-7.526e-5
-0.422	-1.564e-4	-7.588e-5
-0.423	-1.554e-4	-7.650e-5
-0.424	-1.544e-4	-7.712e-5
-0.425	-1.534e-4	-7.773e-5
-0.426	-1.524e-4	-7.834e-5
-0.427	-1.515e-4	-7.895e-5
-0.428	-1.505e-4	-7.955e-5
-0.429	-1.495e-4	-8.015e-5
-0.430	-1.486e-4	-8.074e-5
-0.431	-1.476e-4	-8.134e-5
-0.432	-1.467e-4	-8.192e-5
-0.433	-1.458e-4	-8.251e-5
-0.434	-1.449e-4	-8.308e-5
-0.435	-1.440e-4	-8.366e-5
-0.436	-1.431e-4	-8.423e-5
-0.437	-1.422e-4	-8.480e-5
-0.438	-1.413e-4	-8.537e-5
-0.439	-1.404e-4	-8.593e-5
-0.440	-1.396e-4	-8.649e-5
-0.441	-1.387e-4	-8.704e-5
-0.442	-1.379e-4	-8.759e-5
-0.443	-1.371e-4	-8.814e-5
-0.444	-1.363e-4	-8.869e-5
-0.445	-1.355e-4	-8.923e-5
-0.446	-1.347e-4	-8.977e-5
-0.447	-1.339e-4	-9.030e-5
-0.448	-1.331e-4	-9.084e-5
-0.449	-1.324e-4	-9.137e-5
-0.450	-1.316e-4	-9.189e-5
-0.451	-1.309e-4	-9.242e-5
-0.452	-1.302e-4	-9.294e-5
-0.453	-1.294e-4	-9.345e-5
-0.454	-1.287e-4	-9.397e-5
-0.455	-1.280e-4	-9.448e-5
-0.456	-1.273e-4	-9.499e-5
-0.457	-1.267e-4	-9.550e-5
-0.458	-1.260e-4	-9.600e-5
-0.459	-1.253e-4	-9.650e-5
-0.460	-1.246e-4	-9.700e-5
-0.461	-1.240e-4	-9.750e-5
-0.462	-1.234e-4	-9.799e-5
-0.463	-1.227e-4	-9.848e-5
-0.464	-1.221e-4	-9.897e-5
-0.465	-1.215e-4	-9.946e-5
-0.466	-1.209e-4	-9.994e-5
-0.467	-1.203e-4	-1.004e-4
-0.468	-1.197e-4	-1.009e-4
-0.469	-1.191e-4	-1.014e-4
-0.470	-1.186e-4	-1.018e-4
-0.471	-1.180e-4	-1.023e-4
-0.472	-1.174e-4	-1.028e-4
-0.473	-1.169e-4	-1.033e-4
-0.474	-1.163e-4	-1.037e-4
-0.475	-1.158e-4	-1.042e-4
-0.476	-1.153e-4	-1.046e-4
-0.477	-1.147e-4	-1.051e-4
-0.478	-1.142e-4	-1.056e-4
-0.479	-1.137e-4	-1.060e-4
-0.480	-1.132e-4	-1.065e-4
-0.481	-1.127e-4	-1.069e-4
-0.482	-1.122e-4	-1.074e-4
-0.483	-1.117e-4	-1.078e-4
-0.484	-1.113e-4	-1.083e-4
-0.485	-1.108e-4	-1.087e-4
-0.486	-1.103e-4	-1.091e-4
-0.487	-1.099e-4	-1.096e-4
-0.488	-1.094e-4	-1.100e-4
-0.489	-1.090e-4	-1.105e-4
-0.490	-1.085e-4	-1.109e-4
-0.491	-1.081e-4	-1.113e-4
-0.492	-1.077e-4	-1.118e-4
-0.493	-1.072e-4	-1.122e-4
-0.494	-1.068e-4	-1.126e-4
-0.495	-1.064e-4	-1.130e-4
-0.496	-1.060e-4	-1.135e-4
-0.497	-1.056e-4	-1.139e-4
-0.498	-1.052e-4	-1.143e-4
-0.499	-1.048e-4	-1.147e-4
-0.500	-1.044e-4	-1.151e-4
-0.501	-1.040e-4	-1.156e-4
-0.502	-1.036e-4	-1.160e-4
-0.503	-1.032e-4	-1.164e-4
-0.504	-1.029e-4	-1.168e-4
-0.505	-1.025e-4	-1.172e-4
-0.506	-1.021e-4	-1.176e-4
-0.507	-1.018e-4	-1.180e-4
-0.508	-1.014e-4	-1.184e-4
-0.509	-1.010e-4	-1.188e-4
-0.510	-1.007e-4	-1.192e-4
-0.511	-1.003e-4	-1.196e-4
-0.512	-1.000e-4	-1.200e-4
-0.513	-9.966e-5	-1.204e-4
-0.514	-9.933e-5	-1.208e-4
-0.515	-9.901e-5	-1.212e-4
-0.516	-9.868e-5	-1.216e-4
-0.517	-9.836e-5	-1.220e-4
-0.518	-9.803e-5	-1.224e-4
-0.519	-9.771e-5	-1.228e-4
-0.520	-9.739e-5	-1.232e-4
-0.521	-9.707e-5	-1.236e-4
-0.522	-9.677e-5	-1.240e-4
-0.523	-9.647e-5	-1.244e-4
-0.524	-9.617e-5	-1.247e-4
-0.525	-9.588e-5	-1.251e-4
-0.526	-9.559e-5	-1.255e-4
-0.527	-9.529e-5	-1.259e-4
-0.528	-9.500e-5	-1.263e-4
-0.529	-9.471e-5	-1.266e-4
-0.530	-9.442e-5	-1.270e-4
-0.531	-9.414e-5	-1.274e-4
-0.532	-9.387e-5	-1.278e-4
-0.533	-9.359e-5	-1.281e-4
-0.534	-9.332e-5	-1.285e-4
-0.535	-9.305e-5	-1.289e-4
-0.536	-9.278e-5	-1.293e-4
-0.537	-9.252e-5	-1.296e-4
-0.538	-9.226e-5	-1.300e-4
-0.539	-9.200e-5	-1.304e-4
-0.540	-9.174e-5	-1.307e-4
-0.541	-9.148e-5	-1.311e-4
-0.542	-9.123e-5	-1.315e-4
-0.543	-9.098e-5	-1.318e-4
-0.544	-9.073e-5	-1.322e-4
-0.545	-9.049e-5	-1.326e-4
-0.546	-9.025e-5	-1.329e-4
-0.547	-9.000e-5	-1.333e-4
-0.548	-8.976e-5	-1.336e-4
-0.549	-8.952e-5	-1.340e-4
-0.550	-8.929e-5	-1.344e-4
-0.551	-8.906e-5	-1.347e-4
-0.552	-8.883e-5	-1.351e-4
-0.553	-8.861e-5	-1.354e-4
-0.554	-8.838e-5	-1.358e-4
-0.555	-8.816e-5	-1.361e-4
-0.556	-8.793e-5	-1.365e-4
-0.557	-8.771e-5	-1.368e-4
-0.558	-8.749e-5	-1.372e-4
-0.559	-8.727e-5	-1.375e-4
-0.560	-8.705e-5	-1.379e-4
-0.561	-8.684e-5	-1.382e-4
-0.562	-8.662e-5	-1.386e-4
-0.563	-8.640e-5	-1.389e-4
-0.564	-8.619e-5	-1.393e-4
-0.565	-8.599e-5	-1.396e-4
-0.566	-8.579e-5	-1.399e-4
-0.567	-8.559e-5	-1.403e-4
-0.568	-8.539e-5	-1.406e-4
-0.569	-8.519e-5	-1.410e-4
-0.570	-8.500e-5	-1.413e-4
-0.571	-8.480e-5	-1.416e-4
-0.572	-8.461e-5	-1.420e-4
-0.573	-8.441e-5	-1.423e-4
-0.574	-8.421e-5	-1.427e-4
-0.575	-8.401e-5	-1.430e-4
-0.576	-8.383e-5	-1.433e-4
-0.577	-8.365e-5	-1.437e-4
-0.578	-8.346e-5	-1.440e-4
-0.579	-8.327e-5	-1.443e-4
-0.580	-8.309e-5	-1.447e-4
-0.581	-8.291e-5	-1.450e-4
-0.582	-8.272e-5	-1.453e-4
-0.583	-8.254e-5	-1.457e-4
-0.584	-8.236e-5	-1.460e-4
-0.585	-8.219e-5	-1.463e-4
-0.586	-8.201e-5	-1.466e-4
-0.587	-8.184e-5	-1.470e-4
-0.588	-8.167e-5	-1.473e-4
-0.589	-8.150e-5	-1.476e-4
-0.590	-8.132e-5	-1.480e-4
-0.591	-8.116e-5	-1.483e-4
-0.592	-8.099e-5	-1.486e-4
-0.593	-8.083e-5	-1.489e-4
-0.594	-8.067e-5	-1.492e-4
-0.595	-8.050e-5	-1.496e-4
-0.596	-8.034e-5	-1.499e-4
-0.597	-8.017e-5	-1.502e-4
-0.598	-8.000e-5	-1.505e-4
-0.599	-7.983e-5	-1.508e-4
-0.600	-7.925e-5	-3.170e-7
-0.599	-7.886e-5	-6.324e-7
-0.598	-7.851e-5	-9.465e-7
-0.597	-7.821e-5	-1.259e-6
-0.596	-7.797e-5	-1.571e-6
-0.595	-7.777e-5	-1.882e-6
-0.594	-7.757e-5	-2.193e-6
-0.593	-7.736e-5	-2.502e-6
-0.592	-7.716e-5	-2.811e-6
-0.591	-7.697e-5	-3.119e-6
-0.590	-7.678e-5	-3.426e-6
-0.589	-7.659e-5	-3.732e-6
-0.588	-7.641e-5	-4.038e-6
-0.587	-7.623e-5	-4.343e-6
-0.586	-7.604e-5	-4.647e-6
-0.585	-7.586e-5	-4.950e-6
-0.584	-7.568e-5	-5.253e-6
-0.583	-7.551e-5	-5.555e-6
-0.582	-7.533e-5	-5.856e-6
-0.581	-7.516e-5	-6.157e-6
-0.580	-7.500e-5	-6.457e-6
-0.579	-7.484e-5	-6.756e-6
-0.578	-7.468e-5	-7.055e-6
-0.577	-7.452e-5	-7.353e-6
-0.576	-7.436e-5	-7.650e-6
-0.575	-7.420e-5	-7.947e-6
-0.574	-7.404e-5	-8.243e-6
-0.573	-7.388e-5	-8.539e-6
-0.572	-7.371e-5	-8.834e-6
-0.571	-7.355e-5	-9.128e-6
-0.570	-7.340e-5	-9.422e-6
-0.569	-7.325e-5	-9.715e-6
-0.568	-7.311e-5	-1.001e-5
-0.567	-7.296e-5	-1.030e-5
-0.566	-7.280e-5	-1.059e-5
-0.565	-7.266e-5	-1.088e-5
-0.564	-7.251e-5	-1.117e-5
-0.563	-7.236e-5	-1.146e-5
-0.562	-7.221e-5	-1.175e-5
-0.561	-7.206e-5	-1.204e-5
-0.560	-7.192e-5	-1.232e-5
-0.559	-7.179e-5	-1.261e-5
-0.558	-7.165e-5	-1.290e-5
-0.557	-7.150e-5	-1.318e-5
-0.556	-7.136e-5	-1.347e-5
-0.555	-7.122e-5	-1.375e-5
-0.554	-7.108e-5	-1.404e-5
-0.553	-7.094e-5	-1.432e-5
-0.552	-7.081e-5	-1.461e-5
-0.551	-7.067e-5	-1.489e-5
-0.550	-7.053e-5	-1.517e-5
-0.549	-7.039e-5	-1.545e-5
-0.548	-7.026e-5	-1.573e-5
-0.547	-7.012e-5	-1.601e-5
-0.546	-6.999e-5	-1.629e-5
-0.545	-6.985e-5	-1.657e-5
-0.544	-6.972e-5	-1.685e-5
-0.543	-6.959e-5	-1.713e-5
-0.542	-6.945e-5	-1.741e-5
-0.541	-6.932e-5	-1.769e-5
-0.540	-6.919e-5	-1.796e-5
-0.539	-6.906e-5	-1.824e-5
-0.538	-6.894e-5	-1.851e-5
-0.537	-6.881e-5	-1.879e-5
-0.536	-6.869e-5	-1.906e-5
-0.535	-6.856e-5	-1.934e-5
-0.534	-6.843e-5	-1.961e-5
-0.533	-6.830e-5	-1.989e-5
-0.532	-6.817e-5	-2.016e-5
-0.531	-6.805e-5	-2.043e-5
-0.530	-6.792e-5	-2.070e-5
-0.529	-6.780e-5	-2.097e-5
-0.528	-6.767e-5	-2.124e-5
-0.527	-6.754e-5	-2.151e-5
-0.526	-6.741e-5	-2.178e-5
-0.525	-6.729e-5	-2.205e-5
-0.524	-6.717e-5	-2.232e-5
-0.523	-6.705e-5	-2.259e-5
-0.522	-6.692e-5	-2.286e-5
-0.521	-6.679e-5	-2.312e-5
-0.520	-6.666e-5	-2.339e-5
-0.519	-6.654e-5	-2.366e-5
-0.518	-6.642e-5	-2.392e-5
-0.517	-6.629e-5	-2.419e-5
-0.516	-6.617e-5	-2.445e-5
-0.515	-6.605e-5	-2.472e-5
-0.514	-6.592e-5	-2.498e-5
-0.513	-6.580e-5	-2.524e-5
-0.512	-6.567e-5	-2.551e-5
-0.511	-6.554e-5	-2.577e-5
-0.510	-6.542e-5	-2.603e-5
-0.509	-6.530e-5	-2.629e-5
-0.508	-6.518e-5	-2.655e-5
-0.507	-6.505e-5	-2.681e-5
-0.506	-6.492e-5	-2.707e-5
-0.505	-6.479e-5	-2.733e-5
-0.504	-6.466e-5	-2.759e-5
-0.503	-6.454e-5	-2.785e-5
-0.502	-6.441e-5	-2.811e-5
-0.501	-6.428e-5	-2.836e-5
-0.500	-6.415e-5	-2.862e-5
-0.499	-6.402e-5	-2.888e-5
-0.498	-6.389e-5	-2.913e-5
-0.497	-6.376e-5	-2.939e-5
-0.496	-6.362e-5	-2.964e-5
-0.495	-6.348e-5	-2.989e-5
-0.494	-6.334e-5	-3.015e-5
-0.493	-6.321e-5	-3.040e-5
-0.492	-6.307e-5	-3.065e-5
-0.491	-6.294e-5	-3.091e-5
-0.490	-6.280e-5	-3.116e-5
-0.489	-6.265e-5	-3.141e-5
-0.488	-6.251e-5	-3.166e-5
-0.487	-6.237e-5	-3.191e-5
-0.486	-6.222e-5	-3.216e-5
-0.485	-6.208e-5	-3.240e-5
-0.484	-6.193e-5	-3.265e-5
-0.483	-6.177e-5	-3.290e-5
-0.482	-6.162e-5	-3.314e-5
-0.481	-6.147e-5	-3.339e-5
-0.480	-6.131e-5	-3.364e-5
-0.479	-6.116e-5	-3.388e-5
-0.478	-6.100e-5	-3.412e-5
-0.477	-6.084e-5	-3.437e-5
-0.476	-6.067e-5	-3.461e-5
-0.475	-6.051e-5	-3.485e-5
-0.474	-6.034e-5	-3.509e-5
-0.473	-6.016e-5	-3.533e-5
-0.472	-5.999e-5	-3.557e-5
-0.471	-5.980e-5	-3.581e-5
-0.470	-5.963e-5	-3.605e-5
-0.469	-5.945e-5	-3.629e-5
-0.468	-5.927e-5	-3.653e-5
-0.467	-5.908e-5	-3.676e-5
-0.466	-5.888e-5	-3.700e-5
-0.465	-5.869e-5	-3.723e-5
-0.464	-5.849e-5	-3.747e-5
-0.463	-5.828e-5	-3.770e-5
-0.462	-5.807e-5	-3.793e-5
-0.461	-5.785e-5	-3.816e-5
-0.460	-5.763e-5	-3.840e-5
-0.459	-5.741e-5	-3.862e-5
-0.458	-5.718e-5	-3.885e-5
-0.457	-5.695e-5	-3.908e-5
-0.456	-5.671e-5	-3.931e-5
-0.455	-5.646e-5	-3.953e-5
-0.454	-5.621e-5	-3.976e-5
-0.453	-5.595e-5	-3.998e-5
-0.452	-5.569e-5	-4.021e-5
-0.451	-5.542e-5	-4.043e-5
-0.450	-5.514e-5	-4.065e-5
-0.449	-5.486e-5	-4.087e-5
-0.448	-5.457e-5	-4.109e-5
-0.447	-5.427e-5	-4.130e-5
-0.446	-5.397e-5	-4.152e-5
-0.445	-5.366e-5	-4.173e-5
-0.444	-5.334e-5	-4.195e-5
-0.443	-5.301e-5	-4.216e-5
-0.442	-5.267e-5	-4.237e-5
-0.441	-5.232e-5	-4.258e-5
-0.440	-5.196e-5	-4.279e-5
-0.439	-5.160e-5	-4.299e-5
-0.438	-5.122e-5	-4.320e-5
-0.437	-5.083e-5	-4.340e-5
-0.436	-5.043e-5	-4.360e-5
-0.435	-5.002e-5	-4.380e-5
-0.434	-4.960e-5	-4.400e-5
-0.433	-4.917e-5	-4.420e-5
-0.432	-4.872e-5	-4.439e-5
-0.431	-4.826e-5	-4.459e-5
-0.430	-4.779e-5	-4.478e-5
-0.429	-4.730e-5	-4.497e-5
-0.428	-4.680e-5	-4.515e-5
-0.427	-4.628e-5	-4.534e-5
-0.426	-4.575e-5	-4.552e-5
-0.425	-4.521e-5	-4.570e-5
-0.424	-4.465e-5	-4.588e-5
-0.423	-4.407e-5	-4.606e-5
-0.422	-4.348e-5	-4.623e-5
-0.421	-4.287e-5	-4.640e-5
-0.420	-4.224e-5	-4.657e-5
-0.419	-4.159e-5	-4.674e-5
-0.418	-4.092e-5	-4.690e-5
-0.417	-4.023e-5	-4.706e-5
-0.416	-3.951e-5	-4.722e-5
-0.415	-3.877e-5	-4.738e-5
-0.414	-3.802e-5	-4.753e-5
-0.413	-3.725e-5	-4.768e-5
-0.412	-3.645e-5	-4.782e-5
-0.411	-3.563e-5	-4.796e-5
-0.410	-3.477e-5	-4.810e-5
-0.409	-3.389e-5	-4.824e-5
-0.408	-3.300e-5	-4.837e-5
-0.407	-3.208e-5	-4.850e-5
-0.406	-3.113e-5	-4.862e-5
-0.405	-3.015e-5	-4.874e-5
-0.404	-2.914e-5	-4.886e-5
-0.403	-2.812e-5	-4.897e-5
-0.402	-2.707e-5	-4.908e-5
-0.401	-2.598e-5	-4.919e-5
-0.400	-2.485e-5	-4.929e-5
-0.399	-2.370e-5	-4.938e-5
-0.398	-2.253e-5	-4.947e-5
-0.397	-2.133e-5	-4.956e-5
-0.396	-2.009e-5	-4.964e-5
-0.395	-1.880e-5	-4.971e-5
-0.394	-1.750e-5	-4.978e-5
-0.393	-1.616e-5	-4.985e-5
-0.392	-1.480e-5	-4.991e-5
-0.391	-1.340e-5	-4.996e-5
-0.390	-1.197e-5	-5.001e-5
-0.389	-1.051e-5	-5.005e-5
-0.388	-9.029e-6	-5.008e-5
-0.387	-7.514e-6	-5.011e-5
-0.386	-5.950e-6	-5.014e-5
-0.385	-4.346e-6	-5.016e-5
-0.384	-2.720e-6	-5.017e-5
-0.383	-1.073e-6	-5.017e-5
-0.382	5.949e-7	-5.017e-5
-0.381	2.299e-6	-5.016e-5
-0.380	4.041e-6	-5.014e-5
-0.379	5.804e-6	-5.012e-5
-0.378	7.591e-6	-5.009e-5
-0.377	9.403e-6	-5.005e-5
-0.376	1.125e-5	-5.001e-5
-0.375	1.313e-5	-4.995e-5
-0.374	1.502e-5	-4.989e-5
-0.373	1.692e-5	-4.983e-5
-0.372	1.883e-5	-4.975e-5
-0.371	2.076e-5	-4.967e-5
-0.370	2.273e-5	-4.958e-5
-0.369	2.470e-5	-4.948e-5
-0.368	2.667e-5	-4.937e-5
-0.367	2.865e-5	-4.926e-5
-0.366	3.065e-5	-4.914e-5
-0.365	3.267e-5	-4.900e-5
-0.364	3.468e-5	-4.887e-5
-0.363	3.666e-5	-4.872e-5
-0.362	3.865e-5	-4.856e-5
-0.361	4.064e-5	-4.840e-5
-0.360	4.264e-5	-4.823e-5
-0.359	4.463e-5	-4.805e-5
-0.358	4.659e-5	-4.787e-5
-0.357	4.854e-5	-4.767e-5
-0.356	5.048e-5	-4.747e-5
-0.355	5.241e-5	-4.726e-5
-0.354	5.431e-5	-4.704e-5
-0.353	5.618e-5	-4.682e-5
-0.352	5.802e-5	-4.659e-5
-0.351	5.984e-5	-4.635e-5
-0.350	6.164e-5	-4.610e-5
-0.349	6.340e-5	-4.585e-5
-0.348	6.511e-5	-4.559e-5
-0.347	6.678e-5	-4.532e-5
-0.346	6.842e-5	-4.505e-5
-0.345	7.004e-5	-4.477e-5
-0.344	7.162e-5	-4.448e-5
-0.343	7.313e-5	-4.419e-5
-0.342	7.460e-5	-4.389e-5
-0.341	7.603e-5	-4.358e-5
-0.340	7.742e-5	-4.327e-5
-0.339	7.876e-5	-4.296e-5
-0.338	8.004e-5	-4.264e-5
-0.337	8.126e-5	-4.231e-5
-0.336	8.244e-5	-4.198e-5
-0.335	8.358e-5	-4.165e-5
-0.334	8.467e-5	-4.131e-5
-0.333	8.569e-5	-4.097e-5
-0.332	8.666e-5	-4.062e-5
-0.331	8.759e-5	-4.027e-5
-0.330	8.848e-5	-3.992e-5
-0.329	8.931e-5	-3.956e-5
-0.328	9.007e-5	-3.920e-5
-0.327	9.077e-5	-3.884e-5
-0.326	9.143e-5	-3.847e-5
-0.325	9.206e-5	-3.810e-5
-0.324	9.263e-5	-3.773e-5
-0.323	9.314e-5	-3.736e-5
-0.322	9.361e-5	-3.699e-5
-0.321	9.404e-5	-3.661e-5
-0.320	9.444e-5	-3.623e-5
-0.319	9.479e-5	-3.585e-5
-0.318	9.509e-5	-3.547e-5
-0.317	9.534e-5	-3.509e-5
-0.316	9.556e-5	-3.471e-5
-0.315	9.574e-5	-3.433e-5
-0.314	9.589e-5	-3.394e-5
-0.313	9.599e-5	-3.356e-5
-0.312	9.605e-5	-3.317e-5
-0.311	9.608e-5	-3.279e-5
-0.310	9.610e-5	-3.241e-5
-0.309	9.608e-5	-3.202e-5
-0.308	9.604e-5	-3.164e-5
-0.307	9.597e-5	-3.125e-5
-0.306	9.588e-5	-3.087e-5
-0.305	9.576e-5	-3.049e-5
-0.304	9.561e-5	-3.010e-5
-0.303	9.542e-5	-2.972e-5
-0.302	9.522e-5	-2.934e-5
-0.301	9.501e-5	-2.896e-5
-0.300	9.478e-5	-2.858e-5
-0.299	9.454e-5	-2.820e-5
-0.298	9.428e-5	-2.783e-5
-0.297	9.399e-5	-2.745e-5
-0.296	9.369e-5	-2.708e-5
-0.295	9.339e-5	-2.670e-5
-0.294	9.308e-5	-2.633e-5
-0.293	9.276e-5	-2.596e-5
-0.292	9.243e-5	-2.559e-5
-0.291	9.209e-5	-2.522e-5
-0.290	9.175e-5	-2.485e-5
-0.289	9.140e-5	-2.449e-5
-0.288	9.105e-5	-2.412e-5
-0.287	9.068e-5	-2.376e-5
-0.286	9.031e-5	-2.340e-5
-0.285	8.994e-5	-2.304e-5
-0.284	8.956e-5	-2.268e-5
-0.283	8.918e-5	-2.233e-5
-0.282	8.881e-5	-2.197e-5
-0.281	8.843e-5	-2.162e-5
-0.280	8.806e-5	-2.126e-5
-0.279	8.768e-5	-2.091e-5
-0.278	8.731e-5	-2.056e-5
-0.277	8.693e-5	-2.022e-5
-0.276	8.656e-5	-1.987e-5
-0.275	8.619e-5	-1.953e-5
-0.274	8.582e-5	-1.918e-5
-0.273	8.545e-5	-1.884e-5
-0.272	8.508e-5	-1.850e-5
-0.271	8.471e-5	-1.816e-5
-0.270	8.435e-5	-1.782e-5
-0.269	8.400e-5	-1.749e-5
-0.268	8.365e-5	-1.715e-5
-0.267	8.330e-5	-1.682e-5
-0.266	8.296e-5	-1.649e-5
-0.265	8.262e-5	-1.616e-5
-0.264	8.229e-5	-1.583e-5
-0.263	8.196e-5	-1.550e-5
-0.262	8.163e-5	-1.517e-5
-0.261	8.131e-5	-1.485e-5
-0.260	8.099e-5	-1.453e-5
-0.259	8.067e-5	-1.420e-5
-0.258	8.036e-5	-1.388e-5
-0.257	8.006e-5	-1.356e-5
-0.256	7.976e-5	-1.324e-5
-0.255	7.947e-5	-1.292e-5
-0.254	7.917e-5	-1.261e-5
-0.253	7.888e-5	-1.229e-5
-0.252	7.859e-5	-1.198e-5
-0.251	7.830e-5	-1.166e-5
-0.250	7.803e-5	-1.135e-5
-0.249	7.776e-5	-1.104e-5
-0.248	7.748e-5	-1.073e-5
-0.247	7.721e-5	-1.042e-5
-0.246	7.694e-5	-1.011e-5
-0.245	7.667e-5	-9.808e-6
-0.244	7.641e-5	-9.502e-6
-0.243	7.616e-5	-9.198e-6
-0.242	7.592e-5	-8.894e-6
-0.241	7.567e-5	-8.591e-6
-0.240	7.542e-5	-8.290e-6
-0.239	7.517e-5	-7.989e-6
-0.238	7.492e-5	-7.689e-6
-0.237	7.468e-5	-7.391e-6
-0.236	7.444e-5	-7.093e-6
-0.235	7.420e-5	-6.796e-6
-0.234	7.396e-5	-6.500e-6
-0.233	7.372e-5	-6.205e-6
-0.232	7.348e-5	-5.911e-6
-0.231	7.324e-5	-5.618e-6
-0.230	7.301e-5	-5.326e-6
-0.229	7.278e-5	-5.035e-6
-0.228	7.256e-5	-4.745e-6
-0.227	7.233e-5	-4.456e-6
-0.226	7.210e-5	-4.167e-6
-0.225	7.188e-5	-3.880e-6
-0.224	7.164e-5	-3.593e-6
-0.223	7.141e-5	-3.308e-6
-0.222	7.117e-5	-3.023e-6
-0.221	7.094e-5	-2.739e-6
-0.220	7.070e-5	-2.456e-6
-0.219	7.047e-5	-2.175e-6
-0.218	7.024e-5	-1.894e-6
-0.217	7.001e-5	-1.614e-6
-0.216	6.977e-5	-1.334e-6
-0.215	6.954e-5	-1.056e-6
-0.214	6.930e-5	-7.791e-7
-0.213	6.906e-5	-5.028e-7
-0.212	6.882e-5	-2.275e-7
-0.211	6.858e-5	4.679e-8
-0.210	6.835e-5	3.202e-7
-0.209	6.811e-5	5.926e-7
-0.208	6.787e-5	8.641e-7
-0.207	6.763e-5	1.135e-6
-0.206	6.739e-5	1.404e-6
-0.205	6.715e-5	1.673e-6
-0.204	6.691e-5	1.940e-6
-0.203	6.666e-5	2.207e-6
-0.202	6.641e-5	2.473e-6
-0.201	6.617e-5	2.737e-6
-0.200	6.592e-5	3.001e-6
-0.199	6.566e-5	3.264e-6
-0.198	6.541e-5	3.525e-6
-0.197	6.516e-5	3.786e-6
-0.196	6.491e-5	4.046e-6
-0.195	6.466e-5	4.304e-6
-0.194	6.440e-5	4.562e-6
-0.193	6.415e-5	4.818e-6
-0.192	6.389e-5	5.074e-6
-0.191	6.363e-5	5.329e-6
-0.190	6.338e-5	5.582e-6
-0.189	6.311e-5	5.834e-6
-0.188	6.285e-5	6.086e-6
-0.187	6.259e-5	6.336e-6
-0.186	6.233e-5	6.586e-6
-0.185	6.208e-5	6.834e-6
-0.184	6.182e-5	7.081e-6
-0.183	6.155e-5	7.327e-6
-0.182	6.129e-5	7.573e-6
-0.181	6.103e-5	7.817e-6
-0.180	6.077e-5	8.060e-6
-0.179	6.051e-5	8.302e-6
-0.178	6.025e-5	8.543e-6
-0.177	5.999e-5	8.783e-6
-0.176	5.972e-5	9.022e-6
-0.175	5.945e-5	9.259e-6
-0.174	5.918e-5	9.496e-6
-0.173	5.892e-5	9.732e-6
-0.172	5.867e-5	9.967e-6
-0.171	5.841e-5	1.020e-5
-0.170	5.816e-5	1.043e-5
-0.169	5.790e-5	1.066e-5
-0.168	5.764e-5	1.089e-5
-0.167	5.738e-5	1.112e-5
-0.166	5.712e-5	1.135e-5
-0.165	5.686e-5	1.158e-5
-0.164	5.660e-5	1.181e-5
-0.163	5.634e-5	1.203e-5
-0.162	5.608e-5	1.226e-5
-0.161	5.583e-5	1.248e-5
-0.160	5.558e-5	1.270e-5
-0.159	5.534e-5	1.292e-5
-0.158	5.509e-5	1.314e-5
-0.157	5.484e-5	1.336e-5
-0.156	5.458e-5	1.358e-5
-0.155	5.433e-5	1.380e-5
-0.154	5.408e-5	1.402e-5
-0.153	5.384e-5	1.423e-5
-0.152	5.360e-5	1.444e-5
-0.151	5.336e-5	1.466e-5
-0.150	5.312e-5	1.487e-5
-0.149	5.288e-5	1.508e-5
-0.148	5.264e-5	1.529e-5
-0.147	5.241e-5	1.550e-5
-0.146	5.217e-5	1.571e-5
-0.145	5.194e-5	1.592e-5
-0.144	5.171e-5	1.613e-5
-0.143	5.148e-5	1.633e-5
-0.142	5.126e-5	1.654e-5
-0.141	5.104e-5	1.674e-5
-0.140	5.082e-5	1.694e-5
-0.139	5.060e-5	1.715e-5
-0.138	5.039e-5	1.735e-5
-0.137	5.017e-5	1.755e-5
-0.136	4.996e-5	1.775e-5
-0.135	4.974e-5	1.795e-5
-0.134	4.953e-5	1.815e-5
-0.133	4.933e-5	1.834e-5
-0.132	4.913e-5	1.854e-5
-0.131	4.894e-5	1.874e-5
-0.130	4.874e-5	1.893e-5
-0.129	4.855e-5	1.912e-5
-0.128	4.835e-5	1.932e-5
-0.127	4.817e-5	1.951e-5
-0.126	4.799e-5	1.970e-5
-0.125	4.780e-5	1.989e-5
-0.124	4.762e-5	2.008e-5
-0.123	4.744e-5	2.027e-5
-0.122	4.725e-5	2.046e-5
-0.121	4.708e-5	2.065e-5
-0.120	4.690e-5	2.084e-5
-0.119	4.673e-5	2.103e-5
-0.118	4.656e-5	2.121e-5
-0.117	4.639e-5	2.140e-5
-0.116	4.623e-5	2.158e-5
-0.115	4.607e-5	2.177e-5
-0.114	4.591e-5	2.195e-5
-0.113	4.575e-5	2.213e-5
-0.112	4.559e-5	2.232e-5
-0.111	4.544e-5	2.250e-5
-0.110	4.530e-5	2.268e-5
-0.109	4.514e-5	2.286e-5
-0.108	4.499e-5	2.304e-5
-0.107	4.484e-5	2.322e-5
-0.106	4.469e-5	2.340e-5
-0.105	4.454e-5	2.358e-5
-0.104	4.439e-5	2.375e-5
-0.103	4.425e-5	2.393e-5
-0.102	4.411e-5	2.411e-5
-0.101	4.397e-5	2.428e-5
-0.100	4.382e-5	2.446e-5
-0.099	4.366e-5	2.463e-5
-0.098	4.351e-5	2.481e-5
-0.097	4.336e-5	2.498e-5
-0.096	4.321e-5	2.515e-5
-0.095	4.306e-5	2.533e-5
-0.094	4.291e-5	2.550e-5
-0.093	4.275e-5	2.567e-5
-0.092	4.260e-5	2.584e-5
-0.091	4.245e-5	2.601e-5
-0.090	4.230e-5	2.618e-5
-0.089	4.214e-5	2.635e-5
-0.088	4.197e-5	2.651e-5
-0.087	4.181e-5	2.668e-5
-0.086	4.165e-5	2.685e-5
-0.085	4.150e-5	2.701e-5
-0.084	4.134e-5	2.718e-5
-0.083	4.118e-5	2.734e-5
-0.082	4.103e-5	2.751e-5
-0.081	4.087e-5	2.767e-5
-0.080	4.071e-5	2.783e-5
-0.079	4.055e-5	2.800e-5
-0.078	4.039e-5	2.816e-5
-0.077	4.023e-5	2.832e-5
-0.076	4.008e-5	2.848e-5
-0.075	3.992e-5	2.864e-5
-0.074	3.975e-5	2.880e-5
-0.073	3.959e-5	2.896e-5
-0.072	3.943e-5	2.911e-5
-0.071	3.928e-5	2.927e-5
-0.070	3.912e-5	2.943e-5
-0.069	3.895e-5	2.958e-5
-0.068	3.879e-5	2.974e-5
-0.067	3.863e-5	2.989e-5
-0.066	3.848e-5	3.005e-5
-0.065	3.833e-5	3.020e-5
-0.064	3.818e-5	3.035e-5
-0.063	3.803e-5	3.050e-5
-0.062	3.788e-5	3.066e-5
-0.061	3.772e-5	3.081e-5
-0.060	3.757e-5	3.096e-5
-0.059	3.742e-5	3.111e-5
-0.058	3.727e-5	3.126e-5
-0.057	3.713e-5	3.140e-5
-0.056	3.699e-5	3.155e-5
-0.055	3.685e-5	3.170e-5
-0.054	3.670e-5	3.185e-5
-0.053	3.656e-5	3.199e-5
-0.052	3.642e-5	3.214e-5
-0.051	3.628e-5	3.228e-5
-0.050	3.614e-5	3.243e-5
-0.049	3.600e-5	3.257e-5
-0.048	3.586e-5	3.272e-5
-0.047	3.572e-5	3.286e-5
-0.046	3.559e-5	3.300e-5
-0.045	3.546e-5	3.314e-5
-0.044	3.533e-5	3.328e-5
-0.043	3.520e-5	3.343e-5
-0.042	3.507e-5	3.357e-5
-0.041	3.495e-5	3.371e-5
-0.040	3.482e-5	3.384e-5
-0.039	3.469e-5	3.398e-5
-0.038	3.456e-5	3.412e-5
-0.037	3.443e-5	3.426e-5
-0.036	3.430e-5	3.440e-5
-0.035	3.418e-5	3.453e-5
-0.034	3.406e-5	3.467e-5
-0.033	3.394e-5	3.481e-5
-0.032	3.382e-5	3.494e-5
-0.031	3.371e-5	3.508e-5
-0.030	3.359e-5	3.521e-5
-0.029	3.346e-5	3.534e-5
-0.028	3.334e-5	3.548e-5
-0.027	3.323e-5	3.561e-5
-0.026	3.311e-5	3.574e-5
-0.025	3.300e-5	3.587e-5
-0.024	3.289e-5	3.601e-5
-0.023	3.278e-5	3.614e-5
-0.022	3.267e-5	3.627e-5
-0.021	3.256e-5	3.640e-5
-0.020	3.245e-5	3.653e-5
-0.019	3.234e-5	3.666e-5
-0.018	3.223e-5	3.679e-5
-0.017	3.212e-5	3.691e-5
-0.016	3.202e-5	3.704e-5
-0.015	3.191e-5	3.717e-5
-0.014	3.180e-5	3.730e-5
-0.013	3.170e-5	3.742e-5
-0.012	3.160e-5	3.755e-5
-0.011	3.150e-5	3.768e-5
-0.010	3.140e-5	3.780e-5
-0.009	3.129e-5	3.793e-5
-0.008	3.119e-5	3.805e-5
-0.007	3.109e-5	3.818e-5
-0.006	3.099e-5	3.830e-5
-0.005	3.089e-5	3.842e-5
-0.004	3.079e-5	3.855e-5
-0.003	3.070e-5	3.867e-5
-0.002	3.060e-5	3.879e-5
-0.001	3.050e-5	3.891e-5
-0.000	2.952e-5	1.181e-7
-0.001	2.888e-5	2.336e-7
-0.002	2.835e-5	3.471e-7
-0.003	2.794e-5	4.588e-7
-0.004	2.767e-5	5.695e-7
-0.005	2.748e-5	6.794e-7
-0.006	2.731e-5	7.886e-7
-0.007	2.712e-5	8.971e-7
-0.008	2.694e-5	1.005e-6
-0.009	2.677e-5	1.112e-6
-0.010	2.660e-5	1.218e-6
-0.011	2.644e-5	1.324e-6
-0.012	2.629e-5	1.429e-6
-0.013	2.614e-5	1.534e-6
-0.014	2.600e-5	1.638e-6
-0.015	2.587e-5	1.741e-6
-0.016	2.573e-5	1.844e-6
-0.017	2.560e-5	1.947e-6
-0.018	2.548e-5	2.049e-6
-0.019	2.535e-5	2.150e-6
-0.020	2.522e-5	2.251e-6
-0.021	2.509e-5	2.351e-6
-0.022	2.497e-5	2.451e-6
-0.023	2.485e-5	2.551e-6
-0.024	2.473e-5	2.649e-6
-0.025	2.461e-5	2.748e-6
-0.026	2.450e-5	2.846e-6
-0.027	2.438e-5	2.943e-6
-0.028	2.428e-5	3.041e-6
-0.029	2.417e-5	3.137e-6
-0.030	2.406e-5	3.233e-6
-0.031	2.394e-5	3.329e-6
-0.032	2.383e-5	3.425e-6
-0.033	2.373e-5	3.520e-6
-0.034	2.363e-5	3.614e-6
-0.035	2.353e-5	3.708e-6
-0.036	2.342e-5	3.802e-6
-0.037	2.331e-5	3.895e-6
-0.038	2.320e-5	3.988e-6
-0.039	2.311e-5	4.080e-6
-0.040	2.301e-5	4.172e-6
-0.041	2.291e-5	4.264e-6
-0.042	2.280e-5	4.355e-6
-0.043	2.270e-5	4.446e-6
-0.044	2.259e-5	4.536e-6
-0.045	2.249e-5	4.626e-6
-0.046	2.238e-5	4.716e-6
-0.047	2.229e-5	4.805e-6
-0.048	2.220e-5	4.894e-6
-0.049	2.210e-5	4.982e-6
-0.050	2.200e-5	5.070e-6
-0.051	2.190e-5	5.158e-6
-0.052	2.180e-5	5.245e-6
-0.053	2.171e-5	5.332e-6
-0.054	2.162e-5	5.418e-6
-0.055	2.152e-5	5.504e-6
-0.056	2.143e-5	5.590e-6
-0.057	2.133e-5	5.675e-6
-0.058	2.123e-5	5.760e-6
-0.059	2.114e-5	5.845e-6
-0.060	2.105e-5	5.929e-6
-0.061	2.096e-5	6.013e-6
-0.062	2.086e-5	6.096e-6
-0.063	2.076e-5	6.179e-6
-0.064	2.066e-5	6.262e-6
-0.065	2.056e-5	6.344e-6
-0.066	2.047e-5	6.426e-6
-0.067	2.037e-5	6.508e-6
-0.068	2.028e-5	6.589e-6
-0.069	2.019e-5	6.670e-6
-0.070	2.009e-5	6.750e-6
-0.071	1.998e-5	6.830e-6
-0.072	1.988e-5	6.909e-6
-0.073	1.977e-5	6.988e-6
-0.074	1.968e-5	7.067e-6
-0.075	1.958e-5	7.145e-6
-0.076	1.948e-5	7.223e-6
-0.077	1.939e-5	7.301e-6
-0.078	1.929e-5	7.378e-6
-0.079	1.919e-5	7.455e-6
-0.080	1.909e-5	7.531e-6
-0.081	1.898e-5	7.607e-6
-0.082	1.887e-5	7.683e-6
-0.083	1.877e-5	7.758e-6
-0.084	1.866e-5	7.832e-6
-0.085	1.855e-5	7.907e-6
-0.086	1.844e-5	7.980e-6
-0.087	1.834e-5	8.054e-6
-0.088	1.823e-5	8.127e-6
-0.089	1.812e-5	8.199e-6
-0.090	1.800e-5	8.271e-6
-0.091	1.789e-5	8.343e-6
-0.092	1.778e-5	8.414e-6
-0.093	1.768e-5	8.485e-6
-0.094	1.757e-5	8.555e-6
-0.095	1.747e-5	8.625e-6
-0.096	1.736e-5	8.694e-6
-0.097	1.725e-5	8.763e-6
-0.098	1.715e-5	8.832e-6
-0.099	1.704e-5	8.900e-6
-0.100	1.693e-5	8.968e-6
-0.101	1.683e-5	9.035e-6
-0.102	1.672e-5	9.102e-6
-0.103	1.661e-5	9.168e-6
-0.104	1.651e-5	9.234e-6
-0.105	1.641e-5	9.300e-6
-0.106	1.630e-5	9.365e-6
-0.107	1.620e-5	9.430e-6
-0.108	1.611e-5	9.494e-6
-0.109	1.602e-5	9.558e-6
-0.110	1.594e-5	9.622e-6
-0.111	1.585e-5	9.686e-6
-0.112	1.576e-5	9.749e-6
-0.113	1.568e-5	9.811e-6
-0.114	1.559e-5	9.874e-6
-0.115	1.551e-5	9.936e-6
-0.116	1.542e-5	9.997e-6
-0.117	1.534e-5	1.006e-5
-0.118	1.527e-5	1.012e-5
-0.119	1.520e-5	1.018e-5
-0.120	1.513e-5	1.024e-5
-0.121	1.506e-5	1.030e-5
-0.122	1.499e-5	1.036e-5
-0.123	1.492e-5	1.042e-5
-0.124	1.485e-5	1.048e-5
-0.125	1.478e-5	1.054e-5
-0.126	1.471e-5	1.060e-5
-0.127	1.465e-5	1.066e-5
-0.128	1.459e-5	1.072e-5
-0.129	1.454e-5	1.077e-5
-0.130	1.448e-5	1.083e-5
-0.131	1.442e-5	1.089e-5
-0.132	1.436e-5	1.095e-5
-0.133	1.431e-5	1.100e-5
-0.134	1.425e-5	1.106e-5
-0.135	1.419e-5	1.112e-5
-0.136	1.412e-5	1.117e-5
-0.137	1.406e-5	1.123e-5
-0.138	1.400e-5	1.129e-5
-0.139	1.395e-5	1.134e-5
-0.140	1.389e-5	1.140e-5
-0.141	1.384e-5	1.145e-5
-0.142	1.378e-5	1.151e-5
-0.143	1.373e-5	1.156e-5
-0.144	1.367e-5	1.162e-5
-0.145	1.361e-5	1.167e-5
-0.146	1.355e-5	1.173e-5
-0.147	1.348e-5	1.178e-5
-0.148	1.342e-5	1.183e-5
-0.149	1.336e-5	1.189e-5
-0.150	1.330e-5	1.194e-5
-0.151	1.324e-5	1.199e-5
-0.152	1.318e-5	1.205e-5
-0.153	1.312e-5	1.210e-5
-0.154	1.305e-5	1.215e-5
-0.155	1.298e-5	1.220e-5
-0.156	1.291e-5	1.225e-5
-0.157	1.284e-5	1.231e-5
-0.158	1.278e-5	1.236e-5
-0.159	1.271e-5	1.241e-5
-0.160	1.264e-5	1.246e-5
-0.161	1.257e-5	1.251e-5
-0.162	1.251e-5	1.256e-5
-0.163	1.244e-5	1.261e-5
-0.164	1.236e-5	1.266e-5
-0.165	1.229e-5	1.271e-5
-0.166	1.221e-5	1.276e-5
-0.167	1.213e-5	1.280e-5
-0.168	1.206e-5	1.285e-5
-0.169	1.198e-5	1.290e-5
-0.170	1.191e-5	1.295e-5
-0.171	1.183e-5	1.300e-5
-0.172	1.174e-5	1.304e-5
-0.173	1.166e-5	1.309e-5
-0.174	1.157e-5	1.314e-5
-0.175	1.149e-5	1.318e-5
-0.176	1.140e-5	1.323e-5
-0.177	1.132e-5	1.327e-5
-0.178	1.124e-5	1.332e-5
-0.179	1.115e-5	1.336e-5
-0.180	1.106e-5	1.341e-5
-0.181	1.096e-5	1.345e-5
-0.182	1.087e-5	1.349e-5
-0.183	1.078e-5	1.354e-5
-0.184	1.069e-5	1.358e-5
-0.185	1.059e-5	1.362e-5
-0.186	1.049e-5	1.366e-5
-0.187	1.039e-5	1.371e-5
-0.188	1.029e-5	1.375e-5
-0.189	1.019e-5	1.379e-5
-0.190	1.009e-5	1.383e-5
-0.191	9.987e-6	1.387e-5
-0.192	9.881e-6	1.391e-5
-0.193	9.770e-6	1.395e-5
-0.194	9.660e-6	1.398e-5
-0.195	9.549e-6	1.402e-5
-0.196	9.436e-6	1.406e-5
-0.197	9.323e-6	1.410e-5
-0.198	9.207e-6	1.413e-5
-0.199	9.087e-6	1.417e-5
-0.200	8.964e-6	1.421e-5
-0.201	8.841e-6	1.424e-5
-0.202	8.718e-6	1.428e-5
-0.203	8.596e-6	1.431e-5
-0.204	8.470e-6	1.435e-5
-0.205	8.339e-6	1.438e-5
-0.206	8.204e-6	1.441e-5
-0.207	8.067e-6	1.444e-5
-0.208	7.926e-6	1.448e-5
-0.209	7.784e-6	1.451e-5
-0.210	7.638e-6	1.454e-5
-0.211	7.491e-6	1.457e-5
-0.212	7.345e-6	1.460e-5
-0.213	7.202e-6	1.463e-5
-0.214	7.054e-6	1.465e-5
-0.215	6.901e-6	1.468e-5
-0.216	6.741e-6	1.471e-5
-0.217	6.576e-6	1.473e-5
-0.218	6.412e-6	1.476e-5
-0.219	6.248e-6	1.479e-5
-0.220	6.079e-6	1.481e-5
-0.221	5.909e-6	1.483e-5
-0.222	5.737e-6	1.486e-5
-0.223	5.562e-6	1.488e-5
-0.224	5.388e-6	1.490e-5
-0.225	5.206e-6	1.492e-5
-0.226	5.017e-6	1.494e-5
-0.227	4.825e-6	1.496e-5
-0.228	4.632e-6	1.498e-5
-0.229	4.439e-6	1.500e-5
-0.230	4.245e-6	1.501e-5
-0.231	4.044e-6	1.503e-5
-0.232	3.841e-6	1.504e-5
-0.233	3.636e-6	1.506e-5
-0.234	3.426e-6	1.507e-5
-0.235	3.210e-6	1.509e-5
-0.236	2.990e-6	1.510e-5
-0.237	2.764e-6	1.511e-5
-0.238	2.538e-6	1.512e-5
-0.239	2.309e-6	1.513e-5
-0.240	2.072e-6	1.514e-5
-0.241	1.831e-6	1.514e-5
-0.242	1.586e-6	1.515e-5
-0.243	1.339e-6	1.516e-5
-0.244	1.090e-6	1.516e-5
-0.245	8.343e-7	1.516e-5
-0.246	5.686e-7	1.517e-5
-0.247	2.945e-7	1.517e-5
-0.248	1.450e-8	1.517e-5
-0.249	-2.704e-7	1.517e-5
-0.250	-5.610e-7	1.516e-5
-0.251	-8.547e-7	1.516e-5
-0.252	-1.154e-6	1.516e-5
-0.253	-1.459e-6	1.515e-5
-0.254	-1.769e-6	1.514e-5
-0.255	-2.088e-6	1.513e-5
-0.256	-2.416e-6	1.512e-5
-0.257	-2.749e-6	1.511e-5
-0.258	-3.087e-6	1.510e-5
-0.259	-3.429e-6	1.509e-5
-0.260	-3.781e-6	1.507e-5
-0.261	-4.146e-6	1.506e-5
-0.262	-4.524e-6	1.504e-5
-0.263	-4.909e-6	1.502e-5
-0.264	-5.304e-6	1.500e-5
-0.265	-5.708e-6	1.497e-5
-0.266	-6.123e-6	1.495e-5
-0.267	-6.552e-6	1.492e-5
-0.268	-6.990e-6	1.490e-5
-0.269	-7.437e-6	1.487e-5
-0.270	-7.900e-6	1.483e-5
-0.271	-8.379e-6	1.480e-5
-0.272	-8.874e-6	1.476e-5
-0.273	-9.385e-6	1.473e-5
-0.274	-9.905e-6	1.469e-5
-0.275	-1.044e-5	1.465e-5
-0.276	-1.099e-5	1.460e-5
-0.277	-1.156e-5	1.456e-5
-0.278	-1.214e-5	1.451e-5
-0.279	-1.274e-5	1.446e-5
-0.280	-1.336e-5	1.440e-5
-0.281	-1.401e-5	1.435e-5
-0.282	-1.467e-5	1.429e-5
-0.283	-1.536e-5	1.423e-5
-0.284	-1.607e-5	1.416e-5
-0.285	-1.682e-5	1.410e-5
-0.286	-1.759e-5	1.402e-5
-0.287	-1.839e-5	1.395e-5
-0.288	-1.921e-5	1.387e-5
-0.289	-2.006e-5	1.379e-5
-0.290	-2.094e-5	1.371e-5
-0.291	-2.184e-5	1.362e-5
-0.292	-2.279e-5	1.353e-5
-0.293	-2.377e-5	1.344e-5
-0.294	-2.478e-5	1.334e-5
-0.295	-2.584e-5	1.323e-5
-0.296	-2.693e-5	1.313e-5
-0.297	-2.805e-5	1.301e-5
-0.298	-2.921e-5	1.290e-5
-0.299	-3.042e-5	1.278e-5
-0.300	-3.168e-5	1.265e-5
-0.301	-3.298e-5	1.252e-5
-0.302	-3.434e-5	1.238e-5
-0.303	-3.574e-5	1.224e-5
-0.304	-3.719e-5	1.209e-5
-0.305	-3.868e-5	1.193e-5
-0.306	-4.023e-5	1.177e-5
-0.307	-4.182e-5	1.161e-5
-0.308	-4.347e-5	1.143e-5
-0.309	-4.516e-5	1.125e-5
-0.310	-4.690e-5	1.106e-5
-0.311	-4.870e-5	1.087e-5
-0.312	-5.057e-5	1.067e-5
-0.313	-5.249e-5	1.046e-5
-0.314	-5.445e-5	1.024e-5
-0.315	-5.646e-5	1.001e-5
-0.316	-5.851e-5	9.778e-6
-0.317	-6.063e-5	9.536e-6
-0.318	-6.280e-5	9.285e-6
-0.319	-6.502e-5	9.025e-6
-0.320	-6.730e-5	8.755e-6
-0.321	-6.961e-5	8.477e-6
-0.322	-7.196e-5	8.189e-6
-0.323	-7.435e-5	7.892e-6
-0.324	-7.676e-5	7.585e-6
-0.325	-7.921e-5	7.268e-6
-0.326	-8.171e-5	6.941e-6
-0.327	-8.424e-5	6.604e-6
-0.328	-8.679e-5	6.257e-6
-0.329	-8.936e-5	5.899e-6
-0.330	-9.195e-5	5.532e-6
-0.331	-9.455e-5	5.153e-6
-0.332	-9.718e-5	4.765e-6
-0.333	-9.981e-5	4.365e-6
-0.334	-1.024e-4	3.956e-6
-0.335	-1.051e-4	3.535e-6
-0.336	-1.077e-4	3.105e-6
-0.337	-1.103e-4	2.664e-6
-0.338	-1.129e-4	2.212e-6
-0.339	-1.155e-4	1.750e-6
-0.340	-1.180e-4	1.278e-6
-0.341	-1.206e-4	7.957e-7
-0.342	-1.231e-4	3.032e-7
-0.343	-1.256e-4	-1.992e-7
-0.344	-1.281e-4	-7.114e-7
-0.345	-1.305e-4	-1.233e-6
-0.346	-1.329e-4	-1.765e-6
-0.347	-1.352e-4	-2.306e-6
-0.348	-1.375e-4	-2.856e-6
-0.349	-1.397e-4	-3.415e-6
-0.350	-1.419e-4	-3.983e-6
-0.351	-1.441e-4	-4.559e-6
-0.352	-1.462e-4	-5.144e-6
-0.353	-1.482e-4	-5.737e-6
-0.354	-1.502e-4	-6.337e-6
-0.355	-1.521e-4	-6.946e-6
-0.356	-1.539e-4	-7.561e-6
-0.357	-1.557e-4	-8.184e-6
-0.358	-1.574e-4	-8.814e-6
-0.359	-1.591e-4	-9.450e-6
-0.360	-1.606e-4	-1.009e-5
-0.361	-1.621e-4	-1.074e-5
-0.362	-1.635e-4	-1.140e-5
-0.363	-1.649e-4	-1.205e-5
-0.364	-1.661e-4	-1.272e-5
-0.365	-1.673e-4	-1.339e-5
-0.366	-1.684e-4	-1.406e-5
-0.367	-1.694e-4	-1.474e-5
-0.368	-1.704e-4	-1.542e-5
-0.369	-1.713e-4	-1.611e-5
-0.370	-1.721e-4	-1.679e-5
-0.371	-1.728e-4	-1.749e-5
-0.372	-1.734e-4	-1.818e-5
-0.373	-1.740e-4	-1.888e-5
-0.374	-1.745e-4	-1.957e-5
-0.375	-1.749e-4	-2.027e-5
-0.376	-1.752e-4	-2.097e-5
-0.377	-1.755e-4	-2.168e-5
-0.378	-1.756e-4	-2.238e-5
-0.379	-1.758e-4	-2.308e-5
-0.380	-1.758e-4	-2.378e-5
-0.381	-1.758e-4	-2.449e-5
-0.382	-1.757e-4	-2.519e-5
-0.383	-1.755e-4	-2.589e-5
-0.384	-1.753e-4	-2.659e-5
-0.385	-1.750e-4	-2.729e-5
-0.386	-1.747e-4	-2.799e-5
-0.387	-1.743e-4	-2.869e-5
-0.388	-1.739e-4	-2.938e-5
-0.389	-1.734e-4	-3.008e-5
-0.390	-1.728e-4	-3.077e-5
-0.391	-1.722e-4	-3.146e-5
-0.392	-1.716e-4	-3.214e-5
-0.393	-1.710e-4	-3.283e-5
-0.394	-1.703e-4	-3.351e-5
-0.395	-1.695e-4	-3.419e-5
-0.396	-1.688e-4	-3.486e-5
-0.397	-1.680e-4	-3.553e-5
-0.398	-1.672e-4	-3.620e-5
-0.399	-1.663e-4	-3.687e-5
-0.400	-1.654e-4	-3.753e-5
-0.401	-1.645e-4	-3.819e-5
-0.402	-1.636e-4	-3.884e-5
-0.403	-1.627e-4	-3.949e-5
-0.404	-1.618e-4	-4.014e-5
-0.405	-1.608e-4	-4.078e-5
-0.406	-1.598e-4	-4.142e-5
-0.407	-1.589e-4	-4.206e-5
-0.408	-1.579e-4	-4.269e-5
-0.409	-1.569e-4	-4.332e-5
-0.410	-1.559e-4	-4.394e-5
-0.411	-1.549e-4	-4.456e-5
-0.412	-1.539e-4	-4.518e-5
-0.413	-1.529e-4	-4.579e-5
-0.414	-1.519e-4	-4.640e-5
-0.415	-1.509e-4	-4.700e-5
-0.416	-1.499e-4	-4.760e-5
-0.417	-1.489e-4	-4.819e-5
-0.418	-1.479e-4	-4.879e-5
-0.419	-1.469e-4	-4.937e-5
-0.420	-1.459e-4	-4.996e-5
-0.421	-1.449e-4	-5.054e-5
-0.422	-1.439e-4	-5.111e-5
-0.423	-1.430e-4	-5.168e-5
-0.424	-1.420e-4	-5.225e-5
-0.425	-1.411e-4	-5.282e-5
-0.426	-1.401e-4	-5.338e-5
-0.427	-1.392e-4	-5.393e-5
-0.428	-1.382e-4	-5.449e-5
-0.429	-1.373e-4	-5.504e-5
-0.430	-1.364e-4	-5.558e-5
-0.431	-1.355e-4	-5.612e-5
-0.432	-1.346e-4	-5.666e-5
-0.433	-1.337e-4	-5.720e-5
-0.434	-1.329e-4	-5.773e-5
-0.435	-1.320e-4	-5.826e-5
-0.436	-1.311e-4	-5.878e-5
-0.437	-1.303e-4	-5.930e-5
-0.438	-1.295e-4	-5.982e-5
-0.439	-1.286e-4	-6.034e-5
-0.440	-1.278e-4	-6.085e-5
-0.441	-1.270e-4	-6.135e-5
-0.442	-1.262e-4	-6.186e-5
-0.443	-1.254e-4	-6.236e-5
-0.444	-1.246e-4	-6.286e-5
-0.445	-1.239e-4	-6.336e-5
-0.446	-1.231e-4	-6.385e-5
-0.447	-1.224e-4	-6.434e-5
-0.448	-1.217e-4	-6.482e-5
-0.449	-1.209e-4	-6.531e-5
-0.450	-1.202e-4	-6.579e-5
-0.451	-1.195e-4	-6.627e-5
-0.452	-1.188e-4	-6.674e-5
-0.453	-1.181e-4	-6.721e-5
-0.454	-1.174e-4	-6.768e-5
-0.455	-1.168e-4	-6.815e-5
-0.456	-1.161e-4	-6.862e-5
-0.457	-1.155e-4	-6.908e-5
-0.458	-1.148e-4	-6.954e-5
-0.459	-1.142e-4	-6.999e-5
-0.460	-1.136e-4	-7.045e-5
-0.461	-1.130e-4	-7.090e-5
-0.462	-1.123e-4	-7.135e-5
-0.463	-1.117e-4	-7.180e-5
-0.464	-1.112e-4	-7.224e-5
-0.465	-1.106e-4	-7.268e-5
-0.466	-1.100e-4	-7.312e-5
-0.467	-1.094e-4	-7.356e-5
-0.468	-1.089e-4	-7.400e-5
-0.469	-1.083e-4	-7.443e-5
-0.470	-1.078e-4	-7.486e-5
-0.471	-1.072e-4	-7.529e-5
-0.472	-1.067e-4	-7.572e-5
-0.473	-1.062e-4	-7.614e-5
-0.474	-1.057e-4	-7.656e-5
-0.475	-1.052e-4	-7.698e-5
-0.476	-1.047e-4	-7.740e-5
-0.477	-1.042e-4	-7.782e-5
-0.478	-1.037e-4	-7.823e-5
-0.479	-1.032e-4	-7.865e-5
-0.480	-1.027e-4	-7.906e-5
-0.481	-1.022e-4	-7.947e-5
-0.482	-1.018e-4	-7.987e-5
-0.483	-1.013e-4	-8.028e-5
-0.484	-1.009e-4	-8.068e-5
-0.485	-1.004e-4	-8.108e-5
-0.486	-9.998e-5	-8.148e-5
-0.487	-9.954e-5	-8.188e-5
-0.488	-9.911e-5	-8.228e-5
-0.489	-9.869e-5	-8.267e-5
-0.490	-9.827e-5	-8.307e-5
-0.491	-9.786e-5	-8.346e-5
-0.492	-9.745e-5	-8.385e-5
-0.493	-9.705e-5	-8.424e-5
-0.494	-9.665e-5	-8.462e-5
-0.495	-9.626e-5	-8.501e-5
-0.496	-9.587e-5	-8.539e-5
-0.497	-9.549e-5	-8.577e-5
-0.498	-9.511e-5	-8.615e-5
-0.499	-9.473e-5	-8.653e-5
-0.500	-9.436e-5	-8.691e-5
-0.501	-9.399e-5	-8.729e-5
-0.502	-9.363e-5	-8.766e-5
-0.503	-9.328e-5	-8.803e-5
-0.504	-9.293e-5	-8.841e-5
-0.505	-9.259e-5	-8.878e-5
-0.506	-9.224e-5	-8.915e-5
-0.507	-9.190e-5	-8.951e-5
-0.508	-9.155e-5	-8.988e-5
-0.509	-9.122e-5	-9.024e-5
-0.510	-9.089e-5	-9.061e-5
-0.511	-9.057e-5	-9.097e-5
-0.512	-9.025e-5	-9.133e-5
-0.513	-8.993e-5	-9.169e-5
-0.514	-8.962e-5	-9.205e-5
-0.515	-8.931e-5	-9.241e-5
-0.516	-8.901e-5	-9.276e-5
-0.517	-8.871e-5	-9.312e-5
-0.518	-8.841e-5	-9.347e-5
-0.519	-8.811e-5	-9.382e-5
-0.520	-8.782e-5	-9.417e-5
-0.521	-8.753e-5	-9.452e-5
-0.522	-8.723e-5	-9.487e-5
-0.523	-8.694e-5	-9.522e-5
-0.524	-8.666e-5	-9.557e-5
-0.525	-8.638e-5	-9.591e-5
-0.526	-8.612e-5	-9.626e-5
-0.527	-8.585e-5	-9.660e-5
-0.528	-8.558e-5	-9.694e-5
-0.529	-8.530e-5	-9.728e-5
-0.530	-8.503e-5	-9.762e-5
-0.531	-8.477e-5	-9.796e-5
-0.532	-8.452e-5	-9.830e-5
-0.533	-8.426e-5	-9.864e-5
-0.534	-8.401e-5	-9.898e-5
-0.535	-8.376e-5	-9.931e-5
-0.536	-8.351e-5	-9.964e-5
-0.537	-8.327e-5	-9.998e-5
-0.538	-8.302e-5	-1.003e-4
-0.539	-8.278e-5	-1.006e-4
-0.540	-8.253e-5	-1.010e-4
-0.541	-8.229e-5	-1.013e-4
-0.542	-8.206e-5	-1.016e-4
-0.543	-8.183e-5	-1.020e-4
-0.544	-8.160e-5	-1.023e-4
-0.545	-8.137e-5	-1.026e-4
-0.546	-8.115e-5	-1.029e-4
-0.547	-8.093e-5	-1.033e-4
-0.548	-8.071e-5	-1.036e-4
-0.549	-8.049e-5	-1.039e-4
-0.550	-8.027e-5	-1.042e-4
-0.551	-8.005e-5	-1.045e-4
-0.552	-7.983e-5	-1.049e-4
-0.553	-7.963e-5	-1.052e-4
-0.554	-7.943e-5	-1.055e-4
-0.555	-7.922e-5	-1.058e-4
-0.556	-7.901e-5	-1.061e-4
-0.557	-7.881e-5	-1.064e-4
-0.558	-7.860e-5	-1.068e-4
-0.559	-7.839e-5	-1.071e-4
-0.560	-7.819e-5	-1.074e-4
-0.561	-7.800e-5	-1.077e-4
-0.562	-7.780e-5	-1.080e-4
-0.563	-7.761e-5	-1.083e-4
-0.564	-7.743e-5	-1.086e-4
-0.565	-7.724e-5	-1.089e-4
-0.566	-7.705e-5	-1.092e-4
-0.567	-7.687e-5	-1.096e-4
-0.568	-7.668e-5	-1.099e-4
-0.569	-7.650e-5	-1.102e-4
-0.570	-7.632e-5	-1.105e-4
-0.571	-7.613e-5	-1.108e-4
-0.572	-7.595e-5	-1.111e-4
-0.573	-7.576e-5	-1.114e-4
-0.574	-7.558e-5	-1.117e-4
-0.575	-7.541e-5	-1.120e-4
-0.576	-7.524e-5	-1.123e-4
-0.577	-7.508e-5	-1.126e-4
-0.578	-7.491e-5	-1.129e-4
-0.579	-7.474e-5	-1.132e-4
-0.580	-7.458e-5	-1.135e-4
-0.581	-7.441e-5	-1.138e-4
-0.582	-7.425e-5	-1.141e-4
-0.583	-7.408e-5	-1.144e-4
-0.584	-7.392e-5	-1.147e-4
-0.585	-7.377e-5	-1.150e-4
-0.586	-7.361e-5	-1.153e-4
-0.587	-7.345e-5	-1.156e-4
-0.588	-7.329e-5	-1.158e-4
-0.589	-7.313e-5	-1.161e-4
-0.590	-7.298e-5	-1.164e-4
-0.591	-7.282e-5	-1.167e-4
-0.592	-7.266e-5	-1.170e-4
-0.593	-7.251e-5	-1.173e-4
-0.594	-7.235e-5	-1.176e-4
-0.595	-7.221e-5	-1.179e-4
-0.596	-7.206e-5	-1.182e-4
-0.597	-7.192e-5	-1.185e-4
-0.598	-7.177e-5	-1.187e-4
-0.599	-7.162e-5	-1.190e-4
-0.600	-7.106e-5	-2.842e-7
-0.599	-7.069e-5	-5.670e-7
-0.598	-7.037e-5	-8.485e-7
-0.597	-7.009e-5	-1.129e-6
-0.596	-6.988e-5	-1.408e-6
-0.595	-6.969e-5	-1.687e-6
-0.594	-6.951e-5	-1.965e-6
-0.593	-6.932e-5	-2.243e-6
-0.592	-6.914e-5	-2.519e-6
-0.591	-6.897e-5	-2.795e-6
-0.590	-6.879e-5	-3.070e-6
-0.589	-6.862e-5	-3.345e-6
-0.588	-6.844e-5	-3.618e-6
-0.587	-6.827e-5	-3.891e-6
-0.586	-6.811e-5	-4.164e-6
-0.585	-6.795e-5	-4.436e-6
-0.584	-6.780e-5	-4.707e-6
-0.583	-6.765e-5	-4.977e-6
-0.582	-6.749e-5	-5.247e-6
-0.581	-6.734e-5	-5.517e-6
-0.580	-6.718e-5	-5.786e-6
-0.579	-6.703e-5	-6.054e-6
-0.578	-6.688e-5	-6.321e-6
-0.577	-6.673e-5	-6.588e-6
-0.576	-6.658e-5	-6.854e-6
-0.575	-6.644e-5	-7.120e-6
-0.574	-6.630e-5	-7.385e-6
-0.573	-6.615e-5	-7.650e-6
-0.572	-6.601e-5	-7.914e-6
-0.571	-6.587e-5	-8.177e-6
-0.570	-6.573e-5	-8.440e-6
-0.569	-6.559e-5	-8.703e-6
-0.568	-6.546e-5	-8.965e-6
-0.567	-6.532e-5	-9.226e-6
-0.566	-6.518e-5	-9.487e-6
-0.565	-6.505e-5	-9.747e-6
-0.564	-6.492e-5	-1.001e-5
-0.563	-6.479e-5	-1.027e-5
-0.562	-6.465e-5	-1.052e-5
-0.561	-6.452e-5	-1.078e-5
-0.560	-6.439e-5	-1.104e-5
-0.559	-6.426e-5	-1.130e-5
-0.558	-6.413e-5	-1.155e-5
-0.557	-6.400e-5	-1.181e-5
-0.556	-6.387e-5	-1.206e-5
-0.555	-6.374e-5	-1.232e-5
-0.554	-6.362e-5	-1.257e-5
-0.553	-6.349e-5	-1.283e-5
-0.552	-6.337e-5	-1.308e-5
-0.551	-6.325e-5	-1.333e-5
-0.550	-6.313e-5	-1.359e-5
-0.549	-6.300e-5	-1.384e-5
-0.548	-6.288e-5	-1.409e-5
-0.547	-6.276e-5	-1.434e-5
-0.546	-6.263e-5	-1.459e-5
-0.545	-6.251e-5	-1.484e-5
-0.544	-6.239e-5	-1.509e-5
-0.543	-6.227e-5	-1.534e-5
-0.542	-6.215e-5	-1.559e-5
-0.541	-6.204e-5	-1.584e-5
-0.540	-6.192e-5	-1.609e-5
-0.539	-6.180e-5	-1.633e-5
-0.538	-6.168e-5	-1.658e-5
-0.537	-6.156e-5	-1.683e-5
-0.536	-6.145e-5	-1.707e-5
-0.535	-6.134e-5	-1.732e-5
-0.534	-6.123e-5	-1.756e-5
-0.533	-6.112e-5	-1.781e-5
-0.532	-6.099e-5	-1.805e-5
-0.531	-6.087e-5	-1.829e-5
-0.530	-6.076e-5	-1.854e-5
-0.529	-6.064e-5	-1.878e-5
-0.528	-6.053e-5	-1.902e-5
-0.527	-6.042e-5	-1.926e-5
-0.526	-6.031e-5	-1.950e-5
-0.525	-6.019e-5	-1.975e-5
-0.524	-6.008e-5	-1.999e-5
-0.523	-5.996e-5	-2.023e-5
-0.522	-5.985e-5	-2.046e-5
-0.521	-5.973e-5	-2.070e-5
-0.520	-5.963e-5	-2.094e-5
-0.519	-5.952e-5	-2.118e-5
-0.518	-5.940e-5	-2.142e-5
-0.517	-5.929e-5	-2.165e-5
-0.516	-5.918e-5	-2.189e-5
-0.515	-5.907e-5	-2.213e-5
-0.514	-5.896e-5	-2.236e-5
-0.513	-5.885e-5	-2.260e-5
-0.512	-5.873e-5	-2.283e-5
-0.511	-5.862e-5	-2.307e-5
-0.510	-5.850e-5	-2.330e-5
-0.509	-5.839e-5	-2.354e-5
-0.508	-5.827e-5	-2.377e-5
-0.507	-5.816e-5	-2.400e-5
-0.506	-5.804e-5	-2.423e-5
-0.505	-5.792e-5	-2.447e-5
-0.504	-5.780e-5	-2.470e-5
-0.503	-5.768e-5	-2.493e-5
-0.502	-5.756e-5	-2.516e-5
-0.501	-5.745e-5	-2.539e-5
-0.500	-5.733e-5	-2.562e-5
-0.499	-5.722e-5	-2.585e-5
-0.498	-5.710e-5	-2.607e-5
-0.497	-5.698e-5	-2.630e-5
-0.496	-5.685e-5	-2.653e-5
-0.495	-5.673e-5	-2.676e-5
-0.494	-5.660e-5	-2.698e-5
-0.493	-5.648e-5	-2.721e-5
-0.492	-5.635e-5	-2.743e-5
-0.491	-5.623e-5	-2.766e-5
-0.490	-5.610e-5	-2.788e-5
-0.489	-5.597e-5	-2.811e-5
-0.488	-5.584e-5	-2.833e-5
-0.487	-5.570e-5	-2.855e-5
-0.486	-5.556e-5	-2.878e-5
-0.485	-5.543e-5	-2.900e-5
-0.484	-5.529e-5	-2.922e-5
-0.483	-5.515e-5	-2.944e-5
-0.482	-5.500e-5	-2.966e-5
-0.481	-5.486e-5	-2.988e-5
-0.480	-5.471e-5	-3.010e-5
-0.479	-5.457e-5	-3.032e-5
-0.478	-5.442e-5	-3.053e-5
-0.477	-5.427e-5	-3.075e-5
-0.476	-5.412e-5	-3.097e-5
-0.475	-5.396e-5	-3.118e-5
-0.474	-5.380e-5	-3.140e-5
-0.473	-5.363e-5	-3.161e-5
-0.472	-5.346e-5	-3.183e-5
-0.471	-5.330e-5	-3.204e-5
-0.470	-5.313e-5	-3.225e-5
-0.469	-5.295e-5	-3.246e-5
-0.468	-5.277e-5	-3.268e-5
-0.467	-5.259e-5	-3.289e-5
-0.466	-5.240e-5	-3.309e-5
-0.465	-5.222e-5	-3.330e-5
-0.464	-5.203e-5	-3.351e-5
-0.463	-5.184e-5	-3.372e-5
-0.462	-5.163e-5	-3.393e-5
-0.461	-5.143e-5	-3.413e-5
-0.460	-5.122e-5	-3.434e-5
-0.459	-5.101e-5	-3.454e-5
-0.458	-5.079e-5	-3.474e-5
-0.457	-5.056e-5	-3.495e-5
-0.456	-5.034e-5	-3.515e-5
-0.455	-5.011e-5	-3.535e-5
-0.454	-4.987e-5	-3.555e-5
-0.453	-4.962e-5	-3.575e-5
-0.452	-4.936e-5	-3.594e-5
-0.451	-4.911e-5	-3.614e-5
-0.450	-4.885e-5	-3.633e-5
-0.449	-4.858e-5	-3.653e-5
-0.448	-4.829e-5	-3.672e-5
-0.447	-4.800e-5	-3.691e-5
-0.446	-4.770e-5	-3.711e-5
-0.445	-4.740e-5	-3.729e-5
-0.444	-4.709e-5	-3.748e-5
-0.443	-4.677e-5	-3.767e-5
-0.442	-4.644e-5	-3.786e-5
-0.441	-4.610e-5	-3.804e-5
-0.440	-4.576e-5	-3.822e-5
-0.439	-4.541e-5	-3.841e-5
-0.438	-4.505e-5	-3.859e-5
-0.437	-4.468e-5	-3.876e-5
-0.436	-4.429e-5	-3.894e-5
-0.435	-4.390e-5	-3.912e-5
-0.434	-4.349e-5	-3.929e-5
-0.433	-4.308e-5	-3.946e-5
-0.432	-4.264e-5	-3.963e-5
-0.431	-4.219e-5	-3.980e-5
-0.430	-4.173e-5	-3.997e-5
-0.429	-4.126e-5	-4.013e-5
-0.428	-4.078e-5	-4.030e-5
-0.427	-4.028e-5	-4.046e-5
-0.426	-3.976e-5	-4.062e-5
-0.425	-3.923e-5	-4.077e-5
-0.424	-3.868e-5	-4.093e-5
-0.423	-3.812e-5	-4.108e-5
-0.422	-3.754e-5	-4.123e-5
-0.421	-3.694e-5	-4.138e-5
-0.420	-3.632e-5	-4.152e-5
-0.419	-3.569e-5	-4.167e-5
-0.418	-3.504e-5	-4.181e-5
-0.417	-3.437e-5	-4.195e-5
-0.416	-3.367e-5	-4.208e-5
-0.415	-3.296e-5	-4.221e-5
-0.414	-3.222e-5	-4.234e-5
-0.413	-3.146e-5	-4.247e-5
-0.412	-3.068e-5	-4.259e-5
-0.411	-2.987e-5	-4.271e-5
-0.410	-2.905e-5	-4.282e-5
-0.409	-2.821e-5	-4.294e-5
-0.408	-2.734e-5	-4.305e-5
-0.407	-2.643e-5	-4.315e-5
-0.406	-2.551e-5	-4.325e-5
-0.405	-2.456e-5	-4.335e-5
-0.404	-2.358e-5	-4.345e-5
-0.403	-2.258e-5	-4.354e-5
-0.402	-2.153e-5	-4.362e-5
-0.401	-2.046e-5	-4.371e-5
-0.400	-1.936e-5	-4.378e-5
-0.399	-1.824e-5	-4.386e-5
-0.398	-1.709e-5	-4.392e-5
-0.397	-1.590e-5	-4.399e-5
-0.396	-1.469e-5	-4.405e-5
-0.395	-1.345e-5	-4.410e-5
-0.394	-1.219e-5	-4.415e-5
-0.393	-1.090e-5	-4.419e-5
-0.392	-9.554e-6	-4.423e-5
-0.391	-8.167e-6	-4.426e-5
-0.390	-6.763e-6	-4.429e-5
-0.389	-5.339e-6	-4.431e-5
-0.388	-3.886e-6	-4.433e-5
-0.387	-2.390e-6	-4.434e-5
-0.386	-8.486e-7	-4.434e-5
-0.385	7.177e-7	-4.434e-5
-0.384	2.299e-6	-4.433e-5
-0.383	3.906e-6	-4.431e-5
-0.382	5.547e-6	-4.429e-5
-0.381	7.230e-6	-4.426e-5
-0.380	8.942e-6	-4.423e-5
-0.379	1.067e-5	-4.418e-5
-0.378	1.243e-5	-4.413e-5
-0.377	1.422e-5	-4.408e-5
-0.376	1.604e-5	-4.401e-5
-0.375	1.788e-5	-4.394e-5
-0.374	1.972e-5	-4.386e-5
-0.373	2.157e-5	-4.378e-5
-0.372	2.346e-5	-4.368e-5
-0.371	2.537e-5	-4.358e-5
-0.370	2.730e-5	-4.347e-5
-0.369	2.924e-5	-4.335e-5
-0.368	3.118e-5	-4.323e-5
-0.367	3.315e-5	-4.310e-5
-0.366	3.513e-5	-4.296e-5
-0.365	3.710e-5	-4.281e-5
-0.364	3.907e-5	-4.265e-5
-0.363	4.104e-5	-4.249e-5
-0.362	4.302e-5	-4.232e-5
-0.361	4.501e-5	-4.214e-5
-0.360	4.699e-5	-4.195e-5
-0.359	4.894e-5	-4.175e-5
-0.358	5.088e-5	-4.155e-5
-0.357	5.281e-5	-4.134e-5
-0.356	5.475e-5	-4.112e-5
-0.355	5.665e-5	-4.089e-5
-0.354	5.853e-5	-4.066e-5
-0.353	6.038e-5	-4.042e-5
-0.352	6.221e-5	-4.017e-5
-0.351	6.403e-5	-3.991e-5
-0.350	6.582e-5	-3.965e-5
-0.349	6.756e-5	-3.938e-5
-0.348	6.927e-5	-3.910e-5
-0.347	7.095e-5	-3.882e-5
-0.346	7.260e-5	-3.853e-5
-0.345	7.421e-5	-3.823e-5
-0.344	7.576e-5	-3.793e-5
-0.343	7.727e-5	-3.762e-5
-0.342	7.874e-5	-3.730e-5
-0.341	8.017e-5	-3.698e-5
-0.340	8.155e-5	-3.666e-5
-0.339	8.287e-5	-3.632e-5
-0.338	8.415e-5	-3.599e-5
-0.337	8.539e-5	-3.565e-5
-0.336	8.659e-5	-3.530e-5
-0.335	8.773e-5	-3.495e-5
-0.334	8.880e-5	-3.459e-5
-0.333	8.981e-5	-3.423e-5
-0.332	9.079e-5	-3.387e-5
-0.331	9.172e-5	-3.350e-5
-0.330	9.261e-5	-3.313e-5
-0.329	9.344e-5	-3.276e-5
-0.328	9.421e-5	-3.238e-5
-0.327	9.494e-5	-3.200e-5
-0.326	9.562e-5	-3.162e-5
-0.325	9.625e-5	-3.124e-5
-0.324	9.682e-5	-3.085e-5
-0.323	9.733e-5	-3.046e-5
-0.322	9.781e-5	-3.007e-5
-0.321	9.825e-5	-2.967e-5
-0.320	9.864e-5	-2.928e-5
-0.319	9.898e-5	-2.888e-5
-0.318	9.928e-5	-2.849e-5
-0.317	9.954e-5	-2.809e-5
-0.316	9.978e-5	-2.769e-5
-0.315	9.997e-5	-2.729e-5
-0.314	1.001e-4	-2.689e-5
-0.313	1.002e-4	-2.649e-5
-0.312	1.003e-4	-2.609e-5
-0.311	1.004e-4	-2.569e-5
-0.310	1.004e-4	-2.528e-5
-0.309	1.003e-4	-2.488e-5
-0.308	1.003e-4	-2.448e-5
-0.307	1.003e-4	-2.408e-5
-0.306	1.002e-4	-2.368e-5
-0.305	1.000e-4	-2.328e-5
-0.304	9.989e-5	-2.288e-5
-0.303	9.972e-5	-2.248e-5
-0.302	9.953e-5	-2.208e-5
-0.301	9.932e-5	-2.169e-5
-0.300	9.909e-5	-2.129e-5
-0.299	9.884e-5	-2.089e-5
-0.298	9.858e-5	-2.050e-5
-0.297	9.831e-5	-2.011e-5
-0.296	9.803e-5	-1.971e-5
-0.295	9.774e-5	-1.932e-5
-0.294	9.743e-5	-1.893e-5
-0.293	9.711e-5	-1.855e-5
-0.292	9.678e-5	-1.816e-5
-0.291	9.645e-5	-1.777e-5
-0.290	9.611e-5	-1.739e-5
-0.289	9.576e-5	-1.701e-5
-0.288	9.540e-5	-1.662e-5
-0.287	9.504e-5	-1.624e-5
-0.286	9.467e-5	-1.586e-5
-0.285	9.429e-5	-1.549e-5
-0.284	9.391e-5	-1.511e-5
-0.283	9.353e-5	-1.474e-5
-0.282	9.316e-5	-1.437e-5
-0.281	9.278e-5	-1.399e-5
-0.280	9.241e-5	-1.362e-5
-0.279	9.203e-5	-1.326e-5
-0.278	9.166e-5	-1.289e-5
-0.277	9.129e-5	-1.252e-5
-0.276	9.092e-5	-1.216e-5
-0.275	9.055e-5	-1.180e-5
-0.274	9.019e-5	-1.144e-5
-0.273	8.982e-5	-1.108e-5
-0.272	8.945e-5	-1.072e-5
-0.271	8.909e-5	-1.036e-5
-0.270	8.873e-5	-1.001e-5
-0.269	8.837e-5	-9.656e-6
-0.268	8.802e-5	-9.304e-6
-0.267	8.767e-5	-8.953e-6
-0.266	8.733e-5	-8.604e-6
-0.265	8.698e-5	-8.256e-6
-0.264	8.664e-5	-7.909e-6
-0.263	8.631e-5	-7.564e-6
-0.262	8.598e-5	-7.220e-6
-0.261	8.566e-5	-6.878e-6
-0.260	8.534e-5	-6.536e-6
-0.259	8.503e-5	-6.196e-6
-0.258	8.472e-5	-5.857e-6
-0.257	8.441e-5	-5.520e-6
-0.256	8.411e-5	-5.183e-6
-0.255	8.382e-5	-4.848e-6
-0.254	8.352e-5	-4.514e-6
-0.253	8.324e-5	-4.181e-6
-0.252	8.296e-5	-3.849e-6
-0.251	8.268e-5	-3.518e-6
-0.250	8.240e-5	-3.189e-6
-0.249	8.213e-5	-2.860e-6
-0.248	8.186e-5	-2.533e-6
-0.247	8.160e-5	-2.206e-6
-0.246	8.133e-5	-1.881e-6
-0.245	8.107e-5	-1.557e-6
-0.244	8.082e-5	-1.234e-6
-0.243	8.056e-5	-9.113e-7
-0.242	8.031e-5	-5.900e-7
-0.241	8.006e-5	-2.698e-7
-0.240	7.981e-5	4.942e-8
-0.239	7.957e-5	3.677e-7
-0.238	7.933e-5	6.850e-7
-0.237	7.909e-5	1.001e-6
-0.236	7.886e-5	1.317e-6
-0.235	7.862e-5	1.631e-6
-0.234	7.838e-5	1.945e-6
-0.233	7.814e-5	2.257e-6
-0.232	7.790e-5	2.569e-6
-0.231	7.767e-5	2.880e-6
-0.230	7.743e-5	3.189e-6
-0.229	7.721e-5	3.498e-6
-0.228	7.698e-5	3.806e-6
-0.227	7.676e-5	4.113e-6
-0.226	7.653e-5	4.419e-6
-0.225	7.631e-5	4.724e-6
-0.224	7.608e-5	5.029e-6
-0.223	7.585e-5	5.332e-6
-0.222	7.562e-5	5.635e-6
-0.221	7.538e-5	5.936e-6
-0.220	7.515e-5	6.237e-6
-0.219	7.491e-5	6.536e-6
-0.218	7.469e-5	6.835e-6
-0.217	7.447e-5	7.133e-6
-0.216	7.424e-5	7.430e-6
-0.215	7.401e-5	7.726e-6
-0.214	7.377e-5	8.021e-6
-0.213	7.354e-5	8.315e-6
-0.212	7.330e-5	8.609e-6
-0.211	7.307e-5	8.901e-6
-0.210	7.283e-5	9.192e-6
-0.209	7.259e-5	9.482e-6
-0.208	7.235e-5	9.772e-6
-0.207	7.211e-5	1.006e-5
-0.206	7.187e-5	1.035e-5
-0.205	7.163e-5	1.063e-5
-0.204	7.139e-5	1.092e-5
-0.203	7.115e-5	1.120e-5
-0.202	7.091e-5	1.149e-5
-0.201	7.066e-5	1.177e-5
-0.200	7.041e-5	1.205e-5
-0.199	7.015e-5	1.233e-5
-0.198	6.990e-5	1.261e-5
-0.197	6.965e-5	1.289e-5
-0.196	6.941e-5	1.317e-5
-0.195	6.916e-5	1.345e-5
-0.194	6.891e-5	1.372e-5
-0.193	6.865e-5	1.400e-5
-0.192	6.840e-5	1.427e-5
-0.191	6.814e-5	1.454e-5
-0.190	6.789e-5	1.481e-5
-0.189	6.763e-5	1.508e-5
-0.188	6.737e-5	1.535e-5
-0.187	6.712e-5	1.562e-5
-0.186	6.686e-5	1.589e-5
-0.185	6.660e-5	1.616e-5
-0.184	6.634e-5	1.642e-5
-0.183	6.609e-5	1.669e-5
-0.182	6.583e-5	1.695e-5
-0.181	6.557e-5	1.721e-5
-0.180	6.531e-5	1.747e-5
-0.179	6.504e-5	1.773e-5
-0.178	6.479e-5	1.799e-5
-0.177	6.453e-5	1.825e-5
-0.176	6.428e-5	1.851e-5
-0.175	6.402e-5	1.876e-5
-0.174	6.375e-5	1.902e-5
-0.173	6.349e-5	1.927e-5
-0.172	6.323e-5	1.952e-5
-0.171	6.297e-5	1.978e-5
-0.170	6.270e-5	2.003e-5
-0.169	6.244e-5	2.028e-5
-0.168	6.218e-5	2.053e-5
-0.167	6.192e-5	2.077e-5
-0.166	6.167e-5	2.102e-5
-0.165	6.141e-5	2.127e-5
-0.164	6.115e-5	2.151e-5
-0.163	6.089e-5	2.175e-5
-0.162	6.063e-5	2.200e-5
-0.161	6.037e-5	2.224e-5
-0.160	6.012e-5	2.248e-5
-0.159	5.986e-5	2.272e-5
-0.158	5.962e-5	2.296e-5
-0.157	5.937e-5	2.319e-5
-0.156	5.912e-5	2.343e-5
-0.155	5.887e-5	2.367e-5
-0.154	5.861e-5	2.390e-5
-0.153	5.837e-5	2.413e-5
-0.152	5.813e-5	2.437e-5
-0.151	5.789e-5	2.460e-5
-0.150	5.765e-5	2.483e-5
-0.149	5.740e-5	2.506e-5
-0.148	5.716e-5	2.529e-5
-0.147	5.692e-5	2.551e-5
-0.146	5.668e-5	2.574e-5
-0.145	5.645e-5	2.597e-5
-0.144	5.621e-5	2.619e-5
-0.143	5.599e-5	2.642e-5
-0.142	5.576e-5	2.664e-5
-0.141	5.553e-5	2.686e-5
-0.140	5.530e-5	2.708e-5
-0.139	5.507e-5	2.730e-5
-0.138	5.485e-5	2.752e-5
-0.137	5.463e-5	2.774e-5
-0.136	5.442e-5	2.796e-5
-0.135	5.420e-5	2.817e-5
-0.134	5.399e-5	2.839e-5
-0.133	5.378e-5	2.861e-5
-0.132	5.357e-5	2.882e-5
-0.131	5.337e-5	2.903e-5
-0.130	5.317e-5	2.925e-5
-0.129	5.298e-5	2.946e-5
-0.128	5.278e-5	2.967e-5
-0.127	5.259e-5	2.988e-5
-0.126	5.240e-5	3.009e-5
-0.125	5.221e-5	3.030e-5
-0.124	5.202e-5	3.051e-5
-0.123	5.183e-5	3.071e-5
-0.122	5.165e-5	3.092e-5
-0.121	5.146e-5	3.113e-5
-0.120	5.128e-5	3.133e-5
-0.119	5.111e-5	3.154e-5
-0.118	5.094e-5	3.174e-5
-0.117	5.079e-5	3.194e-5
-0.116	5.062e-5	3.214e-5
-0.115	5.046e-5	3.235e-5
-0.114	5.029e-5	3.255e-5
-0.113	5.012e-5	3.275e-5
-0.112	4.996e-5	3.295e-5
-0.111	4.980e-5	3.315e-5
-0.110	4.965e-5	3.335e-5
-0.109	4.950e-5	3.354e-5
-0.108	4.934e-5	3.374e-5
-0.107	4.919e-5	3.394e-5
-0.106	4.903e-5	3.413e-5
-0.105	4.887e-5	3.433e-5
-0.104	4.872e-5	3.452e-5
-0.103	4.857e-5	3.472e-5
-0.102	4.842e-5	3.491e-5
-0.101	4.827e-5	3.511e-5
-0.100	4.811e-5	3.530e-5
-0.099	4.796e-5	3.549e-5
-0.098	4.781e-5	3.568e-5
-0.097	4.765e-5	3.587e-5
-0.096	4.749e-5	3.606e-5
-0.095	4.733e-5	3.625e-5
-0.094	4.717e-5	3.644e-5
-0.093	4.702e-5	3.663e-5
-0.092	4.686e-5	3.682e-5
-0.091	4.671e-5	3.700e-5
-0.090	4.655e-5	3.719e-5
-0.089	4.638e-5	3.737e-5
-0.088	4.622e-5	3.756e-5
-0.087	4.605e-5	3.774e-5
-0.086	4.589e-5	3.793e-5
-0.085	4.572e-5	3.811e-5
-0.084	4.556e-5	3.829e-5
-0.083	4.541e-5	3.847e-5
-0.082	4.525e-5	3.865e-5
-0.081	4.509e-5	3.883e-5
-0.080	4.492e-5	3.901e-5
-0.079	4.476e-5	3.919e-5
-0.078	4.459e-5	3.937e-5
-0.077	4.442e-5	3.955e-5
-0.076	4.426e-5	3.973e-5
-0.075	4.409e-5	3.990e-5
-0.074	4.393e-5	4.008e-5
-0.073	4.377e-5	4.025e-5
-0.072	4.360e-5	4.043e-5
-0.071	4.344e-5	4.060e-5
-0.070	4.328e-5	4.077e-5
-0.069	4.312e-5	4.095e-5
-0.068	4.296e-5	4.112e-5
-0.067	4.280e-5	4.129e-5
-0.066	4.263e-5	4.146e-5
-0.065	4.248e-5	4.163e-5
-0.064	4.232e-5	4.180e-5
-0.063	4.217e-5	4.197e-5
-0.062	4.202e-5	4.214e-5
-0.061	4.187e-5	4.230e-5
-0.060	4.171e-5	4.247e-5
-0.059	4.155e-5	4.264e-5
-0.058	4.139e-5	4.280e-5
-0.057	4.124e-5	4.297e-5
-0.056	4.110e-5	4.313e-5
-0.055	4.095e-5	4.330e-5
-0.054	4.080e-5	4.346e-5
-0.053	4.066e-5	4.362e-5
-0.052	4.052e-5	4.378e-5
-0.051	4.038e-5	4.395e-5
-0.050	4.024e-5	4.411e-5
-0.049	4.009e-5	4.427e-5
-0.048	3.995e-5	4.443e-5
-0.047	3.981e-5	4.459e-5
-0.046	3.967e-5	4.474e-5
-0.045	3.953e-5	4.490e-5
-0.044	3.939e-5	4.506e-5
-0.043	3.926e-5	4.522e-5
-0.042	3.913e-5	4.537e-5
-0.041	3.900e-5	4.553e-5
-0.040	3.886e-5	4.569e-5
-0.039	3.873e-5	4.584e-5
-0.038	3.859e-5	4.599e-5
-0.037	3.846e-5	4.615e-5
-0.036	3.833e-5	4.630e-5
-0.035	3.820e-5	4.645e-5
-0.034	3.807e-5	4.661e-5
-0.033	3.795e-5	4.676e-5
-0.032	3.783e-5	4.691e-5
-0.031	3.770e-5	4.706e-5
-0.030	3.758e-5	4.721e-5
-0.029	3.746e-5	4.736e-5
-0.028	3.734e-5	4.751e-5
-0.027	3.722e-5	4.766e-5
-0.026	3.710e-5	4.781e-5
-0.025	3.698e-5	4.796e-5
-0.024	3.686e-5	4.810e-5
-0.023	3.674e-5	4.825e-5
-0.022	3.663e-5	4.840e-5
-0.021	3.651e-5	4.854e-5
-0.020	3.640e-5	4.869e-5
-0.019	3.629e-5	4.883e-5
-0.018	3.618e-5	4.898e-5
-0.017	3.607e-5	4.912e-5
-0.016	3.596e-5	4.927e-5
-0.015	3.585e-5	4.941e-5
-0.014	3.573e-5	4.955e-5
-0.013	3.563e-5	4.969e-5
-0.012	3.552e-5	4.984e-5
-0.011	3.542e-5	4.998e-5
-0.010	3.531e-5	5.012e-5
-0.009	3.521e-5	5.026e-5
-0.008	3.511e-5	5.040e-5
-0.007	3.501e-5	5.054e-5
-0.006	3.491e-5	5.068e-5
-0.005	3.481e-5	5.082e-5
-0.004	3.471e-5	5.096e-5
-0.003	3.461e-5	5.110e-5
-0.002	3.452e-5	5.124e-5
-0.001	3.443e-5	5.137e-5
-0.000	3.340e-5	1.336e-7
-0.001	3.275e-5	2.646e-7
-0.002	3.222e-5	3.935e-7
-0.003	3.179e-5	5.207e-7
-0.004	3.151e-5	6.467e-7
-0.005	3.131e-5	7.719e-7
-0.006	3.112e-5	8.964e-7
-0.007	3.092e-5	1.020e-6
-0.008	3.073e-5	1.143e-6
-0.009	3.055e-5	1.265e-6
-0.010	3.038e-5	1.387e-6
-0.011	3.022e-5	1.508e-6
-0.012	3.006e-5	1.628e-6
-0.013	2.992e-5	1.748e-6
-0.014	2.977e-5	1.867e-6
-0.015	2.962e-5	1.985e-6
-0.016	2.948e-5	2.103e-6
-0.017	2.933e-5	2.220e-6
-0.018	2.920e-5	2.337e-6
-0.019	2.906e-5	2.453e-6
-0.020	2.893e-5	2.569e-6
-0.021	2.880e-5	2.684e-6
-0.022	2.868e-5	2.799e-6
-0.023	2.855e-5	2.913e-6
-0.024	2.843e-5	3.027e-6
-0.025	2.831e-5	3.140e-6
-0.026	2.819e-5	3.253e-6
-0.027	2.806e-5	3.365e-6
-0.028	2.794e-5	3.477e-6
-0.029	2.782e-5	3.588e-6
-0.030	2.770e-5	3.699e-6
-0.031	2.758e-5	3.809e-6
-0.032	2.747e-5	3.919e-6
-0.033	2.736e-5	4.029e-6
-0.034	2.725e-5	4.138e-6
-0.035	2.714e-5	4.246e-6
-0.036	2.703e-5	4.354e-6
-0.037	2.692e-5	4.462e-6
-0.038	2.682e-5	4.569e-6
-0.039	2.670e-5	4.676e-6
-0.040	2.659e-5	4.782e-6
-0.041	2.648e-5	4.888e-6
-0.042	2.638e-5	4.994e-6
-0.043	2.628e-5	5.099e-6
-0.044	2.618e-5	5.204e-6
-0.045	2.607e-5	5.308e-6
-0.046	2.596e-5	5.412e-6
-0.047	2.585e-5	5.515e-6
-0.048	2.575e-5	5.618e-6
-0.049	2.564e-5	5.721e-6
-0.050	2.554e-5	5.823e-6
-0.051	2.544e-5	5.925e-6
-0.052	2.534e-5	6.026e-6
-0.053	2.524e-5	6.127e-6
-0.054	2.514e-5	6.228e-6
-0.055	2.504e-5	6.328e-6
-0.056	2.495e-5	6.428e-6
-0.057	2.484e-5	6.527e-6
-0.058	2.474e-5	6.626e-6
-0.059	2.464e-5	6.725e-6
-0.060	2.453e-5	6.823e-6
-0.061	2.444e-5	6.920e-6
-0.062	2.434e-5	7.018e-6
-0.063	2.424e-5	7.115e-6
-0.064	2.415e-5	7.211e-6
-0.065	2.404e-5	7.308e-6
-0.066	2.394e-5	7.403e-6
-0.067	2.384e-5	7.499e-6
-0.068	2.373e-5	7.594e-6
-0.069	2.363e-5	7.688e-6
-0.070	2.352e-5	7.782e-6
-0.071	2.342e-5	7.876e-6
-0.072	2.332e-5	7.969e-6
-0.073	2.321e-5	8.062e-6
-0.074	2.310e-5	8.154e-6
-0.075	2.299e-5	8.246e-6
-0.076	2.288e-5	8.338e-6
-0.077	2.277e-5	8.429e-6
-0.078	2.267e-5	8.520e-6
-0.079	2.256e-5	8.610e-6
-0.080	2.246e-5	8.700e-6
-0.081	2.234e-5	8.789e-6
-0.082	2.223e-5	8.878e-6
-0.083	2.212e-5	8.966e-6
-0.084	2.200e-5	9.054e-6
-0.085	2.189e-5	9.142e-6
-0.086	2.178e-5	9.229e-6
-0.087	2.167e-5	9.316e-6
-0.088	2.156e-5	9.402e-6
-0.089	2.145e-5	9.488e-6
-0.090	2.133e-5	9.573e-6
-0.091	2.121e-5	9.658e-6
-0.092	2.109e-5	9.742e-6
-0.093	2.098e-5	9.826e-6
-0.094	2.086e-5	9.910e-6
-0.095	2.075e-5	9.993e-6
-0.096	2.064e-5	1.008e-5
-0.097	2.053e-5	1.016e-5
-0.098	2.042e-5	1.024e-5
-0.099	2.031e-5	1.032e-5
-0.100	2.019e-5	1.040e-5
-0.101	2.008e-5	1.048e-5
-0.102	1.996e-5	1.056e-5
-0.103	1.985e-5	1.064e-5
-0.104	1.975e-5	1.072e-5
-0.105	1.964e-5	1.080e-5
-0.106	1.954e-5	1.088e-5
-0.107	1.945e-5	1.095e-5
-0.108	1.936e-5	1.103e-5
-0.109	1.926e-5	1.111e-5
-0.110	1.917e-5	1.119e-5
-0.111	1.907e-5	1.126e-5
-0.112	1.898e-5	1.134e-5
-0.113	1.889e-5	1.141e-5
-0.114	1.880e-5	1.149e-5
-0.115	1.871e-5	1.156e-5
-0.116	1.863e-5	1.164e-5
-0.117	1.855e-5	1.171e-5
-0.118	1.847e-5	1.179e-5
-0.119	1.839e-5	1.186e-5
-0.120	1.831e-5	1.193e-5
-0.121	1.823e-5	1.201e-5
-0.122	1.816e-5	1.208e-5
-0.123	1.809e-5	1.215e-5
-0.124	1.801e-5	1.222e-5
-0.125	1.794e-5	1.229e-5
-0.126	1.786e-5	1.237e-5
-0.127	1.779e-5	1.244e-5
-0.128	1.773e-5	1.251e-5
-0.129	1.767e-5	1.258e-5
-0.130	1.761e-5	1.265e-5
-0.131	1.754e-5	1.272e-5
-0.132	1.748e-5	1.279e-5
-0.133	1.741e-5	1.286e-5
-0.134	1.734e-5	1.293e-5
-0.135	1.727e-5	1.300e-5
-0.136	1.721e-5	1.307e-5
-0.137	1.714e-5	1.313e-5
-0.138	1.708e-5	1.320e-5
-0.139	1.701e-5	1.327e-5
-0.140	1.694e-5	1.334e-5
-0.141	1.688e-5	1.341e-5
-0.142	1.682e-5	1.347e-5
-0.143	1.675e-5	1.354e-5
-0.144	1.668e-5	1.361e-5
-0.145	1.661e-5	1.367e-5
-0.146	1.655e-5	1.374e-5
-0.147	1.649e-5	1.381e-5
-0.148	1.643e-5	1.387e-5
-0.149	1.636e-5	1.394e-5
-0.150	1.629e-5	1.400e-5
-0.151	1.622e-5	1.407e-5
-0.152	1.614e-5	1.413e-5
-0.153	1.607e-5	1.420e-5
-0.154	1.600e-5	1.426e-5
-0.155	1.592e-5	1.432e-5
-0.156	1.585e-5	1.439e-5
-0.157	1.578e-5	1.445e-5
-0.158	1.571e-5	1.451e-5
-0.159	1.563e-5	1.458e-5
-0.160	1.555e-5	1.464e-5
-0.161	1.546e-5	1.470e-5
-0.162	1.538e-5	1.476e-5
-0.163	1.531e-5	1.482e-5
-0.164	1.523e-5	1.488e-5
-0.165	1.514e-5	1.494e-5
-0.166	1.506e-5	1.500e-5
-0.167	1.497e-5	1.506e-5
-0.168	1.489e-5	1.512e-5
-0.169	1.480e-5	1.518e-5
-0.170	1.472e-5	1.524e-5
-0.171	1.462e-5	1.530e-5
-0.172	1.453e-5	1.536e-5
-0.173	1.444e-5	1.542e-5
-0.174	1.435e-5	1.547e-5
-0.175	1.425e-5	1.553e-5
-0.176	1.416e-5	1.559e-5
-0.177	1.407e-5	1.564e-5
-0.178	1.398e-5	1.570e-5
-0.179	1.388e-5	1.575e-5
-0.180	1.379e-5	1.581e-5
-0.181	1.369e-5	1.586e-5
-0.182	1.359e-5	1.592e-5
-0.183	1.349e-5	1.597e-5
-0.184	1.338e-5	1.603e-5
-0.185	1.328e-5	1.608e-5
-0.186	1.317e-5	1.613e-5
-0.187	1.307e-5	1.618e-5
-0.188	1.296e-5	1.624e-5
-0.189	1.285e-5	1.629e-5
-0.190	1.273e-5	1.634e-5
-0.191	1.261e-5	1.639e-5
-0.192	1.249e-5	1.644e-5
-0.193	1.238e-5	1.649e-5
-0.194	1.226e-5	1.654e-5
-0.195	1.214e-5	1.659e-5
-0.196	1.202e-5	1.663e-5
-0.197	1.190e-5	1.668e-5
-0.198	1.177e-5	1.673e-5
-0.199	1.164e-5	1.678e-5
-0.200	1.151e-5	1.682e-5
-0.201	1.137e-5	1.687e-5
-0.202	1.124e-5	1.691e-5
-0.203	1.111e-5	1.696e-5
-0.204	1.097e-5	1.700e-5
-0.205	1.083e-5	1.704e-5
-0.206	1.069e-5	1.709e-5
-0.207	1.054e-5	1.713e-5
-0.208	1.039e-5	1.717e-5
-0.209	1.024e-5	1.721e-5
-0.210	1.008e-5	1.725e-5
-0.211	9.925e-6	1.729e-5
-0.212	9.767e-6	1.733e-5
-0.213	9.610e-6	1.737e-5
-0.214	9.453e-6	1.741e-5
-0.215	9.292e-6	1.744e-5
-0.216	9.128e-6	1.748e-5
-0.217	8.958e-6	1.752e-5
-0.218	8.784e-6	1.755e-5
-0.219	8.608e-6	1.759e-5
-0.220	8.429e-6	1.762e-5
-0.221	8.251e-6	1.765e-5
-0.222	8.070e-6	1.768e-5
-0.223	7.885e-6	1.772e-5
-0.224	7.694e-6	1.775e-5
-0.225	7.497e-6	1.778e-5
-0.226	7.297e-6	1.781e-5
-0.227	7.096e-6	1.783e-5
-0.228	6.894e-6	1.786e-5
-0.229	6.686e-6	1.789e-5
-0.230	6.473e-6	1.791e-5
-0.231	6.258e-6	1.794e-5
-0.232	6.043e-6	1.796e-5
-0.233	5.827e-6	1.799e-5
-0.234	5.610e-6	1.801e-5
-0.235	5.388e-6	1.803e-5
-0.236	5.160e-6	1.805e-5
-0.237	4.928e-6	1.807e-5
-0.238	4.688e-6	1.809e-5
-0.239	4.440e-6	1.811e-5
-0.240	4.187e-6	1.812e-5
-0.241	3.932e-6	1.814e-5
-0.242	3.678e-6	1.815e-5
-0.243	3.427e-6	1.817e-5
-0.244	3.171e-6	1.818e-5
-0.245	2.905e-6	1.819e-5
-0.246	2.630e-6	1.820e-5
-0.247	2.345e-6	1.821e-5
-0.248	2.054e-6	1.822e-5
-0.249	1.759e-6	1.823e-5
-0.250	1.459e-6	1.823e-5
-0.251	1.154e-6	1.824e-5
-0.252	8.449e-7	1.824e-5
-0.253	5.308e-7	1.824e-5
-0.254	2.095e-7	1.824e-5
-0.255	-1.177e-7	1.824e-5
-0.256	-4.560e-7	1.824e-5
-0.257	-8.054e-7	1.824e-5
-0.258	-1.161e-6	1.823e-5
-0.259	-1.523e-6	1.823e-5
-0.260	-1.889e-6	1.822e-5
-0.261	-2.259e-6	1.821e-5
-0.262	-2.638e-6	1.820e-5
-0.263	-3.031e-6	1.819e-5
-0.264	-3.436e-6	1.818e-5
-0.265	-3.857e-6	1.816e-5
-0.266	-4.288e-6	1.814e-5
-0.267	-4.730e-6	1.812e-5
-0.268	-5.180e-6	1.810e-5
-0.269	-5.641e-6	1.808e-5
-0.270	-6.112e-6	1.806e-5
-0.271	-6.596e-6	1.803e-5
-0.272	-7.094e-6	1.800e-5
-0.273	-7.610e-6	1.797e-5
-0.274	-8.143e-6	1.794e-5
-0.275	-8.692e-6	1.790e-5
-0.276	-9.259e-6	1.787e-5
-0.277	-9.841e-6	1.783e-5
-0.278	-1.044e-5	1.779e-5
-0.279	-1.106e-5	1.774e-5
-0.280	-1.170e-5	1.769e-5
-0.281	-1.235e-5	1.765e-5
-0.282	-1.303e-5	1.759e-5
-0.283	-1.373e-5	1.754e-5
-0.284	-1.444e-5	1.748e-5
-0.285	-1.519e-5	1.742e-5
-0.286	-1.596e-5	1.736e-5
-0.287	-1.676e-5	1.729e-5
-0.288	-1.759e-5	1.722e-5
-0.289	-1.845e-5	1.714e-5
-0.290	-1.933e-5	1.707e-5
-0.291	-2.025e-5	1.699e-5
-0.292	-2.120e-5	1.690e-5
-0.293	-2.219e-5	1.681e-5
-0.294	-2.321e-5	1.672e-5
-0.295	-2.426e-5	1.662e-5
-0.296	-2.536e-5	1.652e-5
-0.297	-2.649e-5	1.642e-5
-0.298	-2.766e-5	1.630e-5
-0.299	-2.887e-5	1.619e-5
-0.300	-3.013e-5	1.607e-5
-0.301	-3.143e-5	1.594e-5
-0.302	-3.277e-5	1.581e-5
-0.303	-3.416e-5	1.568e-5
-0.304	-3.560e-5	1.553e-5
-0.305	-3.709e-5	1.538e-5
-0.306	-3.863e-5	1.523e-5
-0.307	-4.022e-5	1.507e-5
-0.308	-4.185e-5	1.490e-5
-0.309	-4.353e-5	1.473e-5
-0.310	-4.526e-5	1.455e-5
-0.311	-4.705e-5	1.436e-5
-0.312	-4.889e-5	1.416e-5
-0.313	-5.079e-5	1.396e-5
-0.314	-5.273e-5	1.375e-5
-0.315	-5.472e-5	1.353e-5
-0.316	-5.676e-5	1.330e-5
-0.317	-5.885e-5	1.307e-5
-0.318	-6.099e-5	1.282e-5
-0.319	-6.317e-5	1.257e-5
-0.320	-6.541e-5	1.231e-5
-0.321	-6.769e-5	1.204e-5
-0.322	-7.001e-5	1.176e-5
-0.323	-7.236e-5	1.147e-5
-0.324	-7.474e-5	1.117e-5
-0.325	-7.717e-5	1.086e-5
-0.326	-7.963e-5	1.054e-5
-0.327	-8.212e-5	1.021e-5
-0.328	-8.462e-5	9.876e-6
-0.329	-8.714e-5	9.527e-6
-0.330	-8.969e-5	9.168e-6
-0.331	-9.226e-5	8.799e-6
-0.332	-9.484e-5	8.420e-6
-0.333	-9.743e-5	8.030e-6
-0.334	-1.000e-4	7.630e-6
-0.335	-1.026e-4	7.220e-6
-0.336	-1.052e-4	6.799e-6
-0.337	-1.077e-4	6.368e-6
-0.338	-1.103e-4	5.927e-6
-0.339	-1.128e-4	5.476e-6
-0.340	-1.154e-4	5.014e-6
-0.341	-1.179e-4	4.543e-6
-0.342	-1.204e-4	4.061e-6
-0.343	-1.228e-4	3.570e-6
-0.344	-1.253e-4	3.069e-6
-0.345	-1.276e-4	2.558e-6
-0.346	-1.300e-4	2.038e-6
-0.347	-1.323e-4	1.509e-6
-0.348	-1.346e-4	9.705e-7
-0.349	-1.368e-4	4.234e-7
-0.350	-1.389e-4	-1.324e-7
-0.351	-1.411e-4	-6.966e-7
-0.352	-1.431e-4	-1.269e-6
-0.353	-1.451e-4	-1.850e-6
-0.354	-1.471e-4	-2.438e-6
-0.355	-1.490e-4	-3.034e-6
-0.356	-1.508e-4	-3.637e-6
-0.357	-1.526e-4	-4.247e-6
-0.358	-1.542e-4	-4.864e-6
-0.359	-1.558e-4	-5.487e-6
-0.360	-1.574e-4	-6.117e-6
-0.361	-1.588e-4	-6.752e-6
-0.362	-1.602e-4	-7.393e-6
-0.363	-1.616e-4	-8.039e-6
-0.364	-1.628e-4	-8.691e-6
-0.365	-1.640e-4	-9.347e-6
-0.366	-1.651e-4	-1.001e-5
-0.367	-1.661e-4	-1.067e-5
-0.368	-1.670e-4	-1.134e-5
-0.369	-1.679e-4	-1.201e-5
-0.370	-1.686e-4	-1.269e-5
-0.371	-1.693e-4	-1.336e-5
-0.372	-1.699e-4	-1.404e-5
-0.373	-1.705e-4	-1.472e-5
-0.374	-1.709e-4	-1.541e-5
-0.375	-1.713e-4	-1.609e-5
-0.376	-1.716e-4	-1.678e-5
-0.377	-1.719e-4	-1.747e-5
-0.378	-1.720e-4	-1.816e-5
-0.379	-1.721e-4	-1.884e-5
-0.380	-1.722e-4	-1.953e-5
-0.381	-1.721e-4	-2.022e-5
-0.382	-1.720e-4	-2.091e-5
-0.383	-1.719e-4	-2.160e-5
-0.384	-1.716e-4	-2.228e-5
-0.385	-1.713e-4	-2.297e-5
-0.386	-1.710e-4	-2.365e-5
-0.387	-1.706e-4	-2.434e-5
-0.388	-1.702e-4	-2.502e-5
-0.389	-1.697e-4	-2.569e-5
-0.390	-1.691e-4	-2.637e-5
-0.391	-1.686e-4	-2.705e-5
-0.392	-1.679e-4	-2.772e-5
-0.393	-1.673e-4	-2.839e-5
-0.394	-1.665e-4	-2.905e-5
-0.395	-1.658e-4	-2.972e-5
-0.396	-1.650e-4	-3.038e-5
-0.397	-1.643e-4	-3.103e-5
-0.398	-1.634e-4	-3.169e-5
-0.399	-1.626e-4	-3.234e-5
-0.400	-1.617e-4	-3.298e-5
-0.401	-1.608e-4	-3.363e-5
-0.402	-1.599e-4	-3.427e-5
-0.403	-1.590e-4	-3.490e-5
-0.404	-1.581e-4	-3.553e-5
-0.405	-1.571e-4	-3.616e-5
-0.406	-1.562e-4	-3.679e-5
-0.407	-1.552e-4	-3.741e-5
-0.408	-1.542e-4	-3.803e-5
-0.409	-1.532e-4	-3.864e-5
-0.410	-1.522e-4	-3.925e-5
-0.411	-1.513e-4	-3.985e-5
-0.412	-1.503e-4	-4.045e-5
-0.413	-1.493e-4	-4.105e-5
-0.414	-1.483e-4	-4.164e-5
-0.415	-1.473e-4	-4.223e-5
-0.416	-1.463e-4	-4.282e-5
-0.417	-1.453e-4	-4.340e-5
-0.418	-1.443e-4	-4.398e-5
-0.419	-1.433e-4	-4.455e-5
-0.420	-1.423e-4	-4.512e-5
-0.421	-1.414e-4	-4.568e-5
-0.422	-1.404e-4	-4.625e-5
-0.423	-1.395e-4	-4.680e-5
-0.424	-1.385e-4	-4.736e-5
-0.425	-1.376e-4	-4.791e-5
-0.426	-1.366e-4	-4.845e-5
-0.427	-1.357e-4	-4.900e-5
-0.428	-1.348e-4	-4.954e-5
-0.429	-1.339e-4	-5.007e-5
-0.430	-1.330e-4	-5.060e-5
-0.431	-1.321e-4	-5.113e-5
-0.432	-1.312e-4	-5.166e-5
-0.433	-1.303e-4	-5.218e-5
-0.434	-1.295e-4	-5.270e-5
-0.435	-1.286e-4	-5.321e-5
-0.436	-1.278e-4	-5.372e-5
-0.437	-1.269e-4	-5.423e-5
-0.438	-1.261e-4	-5.473e-5
-0.439	-1.253e-4	-5.524e-5
-0.440	-1.245e-4	-5.573e-5
-0.441	-1.237e-4	-5.623e-5
-0.442	-1.229e-4	-5.672e-5
-0.443	-1.221e-4	-5.721e-5
-0.444	-1.214e-4	-5.769e-5
-0.445	-1.206e-4	-5.818e-5
-0.446	-1.199e-4	-5.866e-5
-0.447	-1.191e-4	-5.913e-5
-0.448	-1.184e-4	-5.961e-5
-0.449	-1.177e-4	-6.008e-5
-0.450	-1.170e-4	-6.055e-5
-0.451	-1.163e-4	-6.101e-5
-0.452	-1.156e-4	-6.147e-5
-0.453	-1.149e-4	-6.193e-5
-0.454	-1.143e-4	-6.239e-5
-0.455	-1.136e-4	-6.284e-5
-0.456	-1.129e-4	-6.330e-5
-0.457	-1.123e-4	-6.374e-5
-0.458	-1.117e-4	-6.419e-5
-0.459	-1.110e-4	-6.464e-5
-0.460	-1.104e-4	-6.508e-5
-0.461	-1.098e-4	-6.552e-5
-0.462	-1.092e-4	-6.595e-5
-0.463	-1.086e-4	-6.639e-5
-0.464	-1.080e-4	-6.682e-5
-0.465	-1.075e-4	-6.725e-5
-0.466	-1.069e-4	-6.768e-5
-0.467	-1.063e-4	-6.810e-5
-0.468	-1.058e-4	-6.853e-5
-0.469	-1.052e-4	-6.895e-5
-0.470	-1.047e-4	-6.937e-5
-0.471	-1.042e-4	-6.978e-5
-0.472	-1.037e-4	-7.020e-5
-0.473	-1.031e-4	-7.061e-5
-0.474	-1.026e-4	-7.102e-5
-0.475	-1.021e-4	-7.143e-5
-0.476	-1.016e-4	-7.184e-5
-0.477	-1.011e-4	-7.224e-5
-0.478	-1.007e-4	-7.264e-5
-0.479	-1.002e-4	-7.304e-5
-0.480	-9.970e-5	-7.344e-5
-0.481	-9.923e-5	-7.384e-5
-0.482	-9.877e-5	-7.423e-5
-0.483	-9.832e-5	-7.463e-5
-0.484	-9.787e-5	-7.502e-5
-0.485	-9.744e-5	-7.541e-5
-0.486	-9.700e-5	-7.580e-5
-0.487	-9.658e-5	-7.618e-5
-0.488	-9.615e-5	-7.657e-5
-0.489	-9.574e-5	-7.695e-5
-0.490	-9.532e-5	-7.733e-5
-0.491	-9.491e-5	-7.771e-5
-0.492	-9.450e-5	-7.809e-5
-0.493	-9.410e-5	-7.847e-5
-0.494	-9.370e-5	-7.884e-5
-0.495	-9.331e-5	-7.921e-5
-0.496	-9.293e-5	-7.959e-5
-0.497	-9.256e-5	-7.996e-5
-0.498	-9.218e-5	-8.032e-5
-0.499	-9.182e-5	-8.069e-5
-0.500	-9.145e-5	-8.106e-5
-0.501	-9.109e-5	-8.142e-5
-0.502	-9.074e-5	-8.178e-5
-0.503	-9.039e-5	-8.215e-5
-0.504	-9.004e-5	-8.251e-5
-0.505	-8.970e-5	-8.287e-5
-0.506	-8.936e-5	-8.322e-5
-0.507	-8.902e-5	-8.358e-5
-0.508	-8.869e-5	-8.393e-5
-0.509	-8.837e-5	-8.429e-5
-0.510	-8.804e-5	-8.464e-5
-0.511	-8.772e-5	-8.499e-5
-0.512	-8.740e-5	-8.534e-5
-0.513	-8.708e-5	-8.569e-5
-0.514	-8.677e-5	-8.604e-5
-0.515	-8.647e-5	-8.638e-5
-0.516	-8.616e-5	-8.673e-5
-0.517	-8.586e-5	-8.707e-5
-0.518	-8.557e-5	-8.741e-5
-0.519	-8.528e-5	-8.775e-5
-0.520	-8.499e-5	-8.809e-5
-0.521	-8.470e-5	-8.843e-5
-0.522	-8.442e-5	-8.877e-5
-0.523	-8.414e-5	-8.911e-5
-0.524	-8.386e-5	-8.944e-5
-0.525	-8.359e-5	-8.978e-5
-0.526	-8.332e-5	-9.011e-5
-0.527	-8.304e-5	-9.044e-5
-0.528	-8.277e-5	-9.077e-5
-0.529	-8.251e-5	-9.110e-5
-0.530	-8.225e-5	-9.143e-5
-0.531	-8.200e-5	-9.176e-5
-0.532	-8.174e-5	-9.209e-5
-0.533	-8.149e-5	-9.241e-5
-0.534	-8.124e-5	-9.274e-5
-0.535	-8.099e-5	-9.306e-5
-0.536	-8.075e-5	-9.338e-5
-0.537	-8.050e-5	-9.371e-5
-0.538	-8.027e-5	-9.403e-5
-0.539	-8.003e-5	-9.435e-5
-0.540	-7.980e-5	-9.467e-5
-0.541	-7.957e-5	-9.498e-5
-0.542	-7.933e-5	-9.530e-5
-0.543	-7.910e-5	-9.562e-5
-0.544	-7.887e-5	-9.593e-5
-0.545	-7.864e-5	-9.625e-5
-0.546	-7.842e-5	-9.656e-5
-0.547	-7.820e-5	-9.687e-5
-0.548	-7.798e-5	-9.719e-5
-0.549	-7.776e-5	-9.750e-5
-0.550	-7.755e-5	-9.781e-5
-0.551	-7.734e-5	-9.812e-5
-0.552	-7.713e-5	-9.843e-5
-0.553	-7.692e-5	-9.873e-5
-0.554	-7.672e-5	-9.904e-5
-0.555	-7.651e-5	-9.935e-5
-0.556	-7.631e-5	-9.965e-5
-0.557	-7.611e-5	-9.996e-5
-0.558	-7.592e-5	-1.003e-4
-0.559	-7.572e-5	-1.006e-4
-0.560	-7.553e-5	-1.009e-4
-0.561	-7.534e-5	-1.012e-4
-0.562	-7.515e-5	-1.015e-4
-0.563	-7.497e-5	-1.018e-4
-0.564	-7.478e-5	-1.021e-4
-0.565	-7.459e-5	-1.024e-4
-0.566	-7.441e-5	-1.027e-4
-0.567	-7.422e-5	-1.030e-4
-0.568	-7.403e-5	-1.033e-4
-0.569	-7.385e-5	-1.035e-4
-0.570	-7.368e-5	-1.038e-4
-0.571	-7.350e-5	-1.041e-4
-0.572	-7.332e-5	-1.044e-4
-0.573	-7.315e-5	-1.047e-4
-0.574	-7.298e-5	-1.050e-4
-0.575	-7.281e-5	-1.053e-4
-0.576	-7.263e-5	-1.056e-4
-0.577	-7.247e-5	-1.059e-4
-0.578	-7.230e-5	-1.062e-4
-0.579	-7.213e-5	-1.065e-4
-0.580	-7.197e-5	-1.068e-4
-0.581	-7.181e-5	-1.070e-4
-0.582	-7.165e-5	-1.073e-4
-0.583	-7.149e-5	-1.076e-4
-0.584	-7.133e-5	-1.079e-4
-0.585	-7.116e-5	-1.082e-4
-0.586	-7.100e-5	-1.085e-4
-0.587	-7.084e-5	-1.088e-4
-0.588	-7.069e-5	-1.090e-4
-0.589	-7.054e-5	-1.093e-4
-0.590	-7.038e-5	-1.096e-4
-0.591	-7.023e-5	-1.099e-4
-0.592	-7.008e-5	-1.102e-4
-0.593	-6.993e-5	-1.104e-4
-0.594	-6.979e-5	-1.107e-4
-0.595	-6.964e-5	-1.110e-4
-0.596	-6.950e-5	-1.113e-4
-0.597	-6.935e-5	-1.116e-4
-0.598	-6.921e-5	-1.118e-4
-0.599	-6.906e-5	-1.121e-4
-0.600	-6.851e-5	-2.741e-7
-0.599	-6.816e-5	-5.467e-7
-0.598	-6.784e-5	-8.181e-7
-0.597	-6.757e-5	-1.088e-6
-0.596	-6.736e-5	-1.358e-6
-0.595	-6.718e-5	-1.627e-6
-0.594	-6.700e-5	-1.895e-6
-0.593	-6.681e-5	-2.162e-6
-0.592	-6.663e-5	-2.428e-6
-0.591	-6.646e-5	-2.694e-6
-0.590	-6.629e-5	-2.959e-6
-0.589	-6.613e-5	-3.224e-6
-0.588	-6.596e-5	-3.488e-6
-0.587	-6.580e-5	-3.751e-6
-0.586	-6.565e-5	-4.013e-6
-0.585	-6.549e-5	-4.275e-6
-0.584	-6.534e-5	-4.537e-6
-0.583	-6.518e-5	-4.797e-6
-0.582	-6.502e-5	-5.058e-6
-0.581	-6.487e-5	-5.317e-6
-0.580	-6.472e-5	-5.576e-6
-0.579	-6.457e-5	-5.834e-6
-0.578	-6.442e-5	-6.092e-6
-0.577	-6.427e-5	-6.349e-6
-0.576	-6.413e-5	-6.605e-6
-0.575	-6.399e-5	-6.861e-6
-0.574	-6.385e-5	-7.117e-6
-0.573	-6.371e-5	-7.372e-6
-0.572	-6.357e-5	-7.626e-6
-0.571	-6.343e-5	-7.880e-6
-0.570	-6.329e-5	-8.133e-6
-0.569	-6.315e-5	-8.386e-6
-0.568	-6.302e-5	-8.638e-6
-0.567	-6.288e-5	-8.889e-6
-0.566	-6.275e-5	-9.140e-6
-0.565	-6.262e-5	-9.391e-6
-0.564	-6.249e-5	-9.641e-6
-0.563	-6.236e-5	-9.890e-6
-0.562	-6.223e-5	-1.014e-5
-0.561	-6.211e-5	-1.039e-5
-0.560	-6.199e-5	-1.064e-5
-0.559	-6.186e-5	-1.088e-5
-0.558	-6.173e-5	-1.113e-5
-0.557	-6.160e-5	-1.138e-5
-0.556	-6.148e-5	-1.162e-5
-0.555	-6.136e-5	-1.187e-5
-0.554	-6.124e-5	-1.211e-5
-0.553	-6.112e-5	-1.236e-5
-0.552	-6.100e-5	-1.260e-5
-0.551	-6.088e-5	-1.284e-5
-0.550	-6.076e-5	-1.309e-5
-0.549	-6.063e-5	-1.333e-5
-0.548	-6.051e-5	-1.357e-5
-0.547	-6.039e-5	-1.381e-5
-0.546	-6.028e-5	-1.405e-5
-0.545	-6.016e-5	-1.430e-5
-0.544	-6.005e-5	-1.454e-5
-0.543	-5.993e-5	-1.478e-5
-0.542	-5.982e-5	-1.501e-5
-0.541	-5.970e-5	-1.525e-5
-0.540	-5.958e-5	-1.549e-5
-0.539	-5.947e-5	-1.573e-5
-0.538	-5.935e-5	-1.597e-5
-0.537	-5.924e-5	-1.620e-5
-0.536	-5.913e-5	-1.644e-5
-0.535	-5.902e-5	-1.668e-5
-0.534	-5.891e-5	-1.691e-5
-0.533	-5.879e-5	-1.715e-5
-0.532	-5.868e-5	-1.738e-5
-0.531	-5.857e-5	-1.762e-5
-0.530	-5.846e-5	-1.785e-5
-0.529	-5.835e-5	-1.808e-5
-0.528	-5.824e-5	-1.832e-5
-0.527	-5.812e-5	-1.855e-5
-0.526	-5.801e-5	-1.878e-5
-0.525	-5.790e-5	-1.901e-5
-0.524	-5.778e-5	-1.924e-5
-0.523	-5.767e-5	-1.947e-5
-0.522	-5.757e-5	-1.970e-5
-0.521	-5.746e-5	-1.993e-5
-0.520	-5.735e-5	-2.016e-5
-0.519	-5.724e-5	-2.039e-5
-0.518	-5.713e-5	-2.062e-5
-0.517	-5.702e-5	-2.085e-5
-0.516	-5.691e-5	-2.108e-5
-0.515	-5.681e-5	-2.130e-5
-0.514	-5.669e-5	-2.153e-5
-0.513	-5.658e-5	-2.176e-5
-0.512	-5.646e-5	-2.198e-5
-0.511	-5.635e-5	-2.221e-5
-0.510	-5.623e-5	-2.243e-5
-0.509	-5.612e-5	-2.266e-5
-0.508	-5.600e-5	-2.288e-5
-0.507	-5.589e-5	-2.311e-5
-0.506	-5.578e-5	-2.333e-5
-0.505	-5.567e-5	-2.355e-5
-0.504	-5.556e-5	-2.377e-5
-0.503	-5.544e-5	-2.400e-5
-0.502	-5.533e-5	-2.422e-5
-0.501	-5.521e-5	-2.444e-5
-0.500	-5.510e-5	-2.466e-5
-0.499	-5.498e-5	-2.488e-5
-0.498	-5.485e-5	-2.510e-5
-0.497	-5.473e-5	-2.532e-5
-0.496	-5.461e-5	-2.553e-5
-0.495	-5.448e-5	-2.575e-5
-0.494	-5.436e-5	-2.597e-5
-0.493	-5.424e-5	-2.619e-5
-0.492	-5.412e-5	-2.640e-5
-0.491	-5.399e-5	-2.662e-5
-0.490	-5.387e-5	-2.683e-5
-0.489	-5.374e-5	-2.705e-5
-0.488	-5.360e-5	-2.726e-5
-0.487	-5.347e-5	-2.748e-5
-0.486	-5.334e-5	-2.769e-5
-0.485	-5.321e-5	-2.790e-5
-0.484	-5.308e-5	-2.812e-5
-0.483	-5.294e-5	-2.833e-5
-0.482	-5.280e-5	-2.854e-5
-0.481	-5.266e-5	-2.875e-5
-0.480	-5.251e-5	-2.896e-5
-0.479	-5.237e-5	-2.917e-5
-0.478	-5.222e-5	-2.938e-5
-0.477	-5.208e-5	-2.959e-5
-0.476	-5.193e-5	-2.979e-5
-0.475	-5.178e-5	-3.000e-5
-0.474	-5.162e-5	-3.021e-5
-0.473	-5.145e-5	-3.041e-5
-0.472	-5.129e-5	-3.062e-5
-0.471	-5.112e-5	-3.082e-5
-0.470	-5.096e-5	-3.103e-5
-0.469	-5.078e-5	-3.123e-5
-0.468	-5.061e-5	-3.143e-5
-0.467	-5.043e-5	-3.163e-5
-0.466	-5.024e-5	-3.184e-5
-0.465	-5.005e-5	-3.204e-5
-0.464	-4.986e-5	-3.224e-5
-0.463	-4.967e-5	-3.243e-5
-0.462	-4.947e-5	-3.263e-5
-0.461	-4.927e-5	-3.283e-5
-0.460	-4.907e-5	-3.303e-5
-0.459	-4.886e-5	-3.322e-5
-0.458	-4.864e-5	-3.342e-5
-0.457	-4.843e-5	-3.361e-5
-0.456	-4.820e-5	-3.380e-5
-0.455	-4.796e-5	-3.399e-5
-0.454	-4.772e-5	-3.418e-5
-0.453	-4.747e-5	-3.437e-5
-0.452	-4.722e-5	-3.456e-5
-0.451	-4.696e-5	-3.475e-5
-0.450	-4.670e-5	-3.494e-5
-0.449	-4.643e-5	-3.512e-5
-0.448	-4.615e-5	-3.531e-5
-0.447	-4.587e-5	-3.549e-5
-0.446	-4.559e-5	-3.567e-5
-0.445	-4.529e-5	-3.586e-5
-0.444	-4.498e-5	-3.604e-5
-0.443	-4.466e-5	-3.621e-5
-0.442	-4.434e-5	-3.639e-5
-0.441	-4.401e-5	-3.657e-5
-0.440	-4.368e-5	-3.674e-5
-0.439	-4.334e-5	-3.692e-5
-0.438	-4.298e-5	-3.709e-5
-0.437	-4.260e-5	-3.726e-5
-0.436	-4.222e-5	-3.743e-5
-0.435	-4.183e-5	-3.759e-5
-0.434	-4.142e-5	-3.776e-5
-0.433	-4.101e-5	-3.792e-5
-0.432	-4.059e-5	-3.809e-5
-0.431	-4.015e-5	-3.825e-5
-0.430	-3.969e-5	-3.841e-5
-0.429	-3.923e-5	-3.856e-5
-0.428	-3.874e-5	-3.872e-5
-0.427	-3.824e-5	-3.887e-5
-0.426	-3.773e-5	-3.902e-5
-0.425	-3.721e-5	-3.917e-5
-0.424	-3.667e-5	-3.932e-5
-0.423	-3.612e-5	-3.946e-5
-0.422	-3.554e-5	-3.960e-5
-0.421	-3.495e-5	-3.974e-5
-0.420	-3.435e-5	-3.988e-5
-0.419	-3.372e-5	-4.002e-5
-0.418	-3.307e-5	-4.015e-5
-0.417	-3.240e-5	-4.028e-5
-0.416	-3.171e-5	-4.040e-5
-0.415	-3.100e-5	-4.053e-5
-0.414	-3.027e-5	-4.065e-5
-0.413	-2.952e-5	-4.077e-5
-0.412	-2.875e-5	-4.088e-5
-0.411	-2.797e-5	-4.099e-5
-0.410	-2.717e-5	-4.110e-5
-0.409	-2.633e-5	-4.121e-5
-0.408	-2.546e-5	-4.131e-5
-0.407	-2.456e-5	-4.141e-5
-0.406	-2.364e-5	-4.150e-5
-0.405	-2.270e-5	-4.159e-5
-0.404	-2.174e-5	-4.168e-5
-0.403	-2.075e-5	-4.176e-5
-0.402	-1.972e-5	-4.184e-5
-0.401	-1.867e-5	-4.192e-5
-0.400	-1.760e-5	-4.199e-5
-0.399	-1.649e-5	-4.205e-5
-0.398	-1.535e-5	-4.211e-5
-0.397	-1.417e-5	-4.217e-5
-0.396	-1.297e-5	-4.222e-5
-0.395	-1.176e-5	-4.227e-5
-0.394	-1.051e-5	-4.231e-5
-0.393	-9.227e-6	-4.235e-5
-0.392	-7.900e-6	-4.238e-5
-0.391	-6.541e-6	-4.241e-5
-0.390	-5.160e-6	-4.243e-5
-0.389	-3.750e-6	-4.244e-5
-0.388	-2.303e-6	-4.245e-5
-0.387	-8.196e-7	-4.246e-5
-0.386	6.970e-7	-4.245e-5
-0.385	2.238e-6	-4.244e-5
-0.384	3.804e-6	-4.243e-5
-0.383	5.408e-6	-4.241e-5
-0.382	7.041e-6	-4.238e-5
-0.381	8.696e-6	-4.234e-5
-0.380	1.037e-5	-4.230e-5
-0.379	1.208e-5	-4.225e-5
-0.378	1.382e-5	-4.220e-5
-0.377	1.560e-5	-4.214e-5
-0.376	1.740e-5	-4.207e-5
-0.375	1.921e-5	-4.199e-5
-0.374	2.103e-5	-4.191e-5
-0.373	2.288e-5	-4.181e-5
-0.372	2.475e-5	-4.172e-5
-0.371	2.664e-5	-4.161e-5
-0.370	2.853e-5	-4.149e-5
-0.369	3.045e-5	-4.137e-5
-0.368	3.239e-5	-4.124e-5
-0.367	3.435e-5	-4.111e-5
-0.366	3.630e-5	-4.096e-5
-0.365	3.826e-5	-4.081e-5
-0.364	4.021e-5	-4.065e-5
-0.363	4.217e-5	-4.048e-5
-0.362	4.415e-5	-4.030e-5
-0.361	4.611e-5	-4.012e-5
-0.360	4.806e-5	-3.992e-5
-0.359	5.000e-5	-3.972e-5
-0.358	5.193e-5	-3.952e-5
-0.357	5.386e-5	-3.930e-5
-0.356	5.577e-5	-3.908e-5
-0.355	5.766e-5	-3.885e-5
-0.354	5.953e-5	-3.861e-5
-0.353	6.139e-5	-3.836e-5
-0.352	6.323e-5	-3.811e-5
-0.351	6.505e-5	-3.785e-5
-0.350	6.680e-5	-3.758e-5
-0.349	6.852e-5	-3.731e-5
-0.348	7.022e-5	-3.703e-5
-0.347	7.189e-5	-3.674e-5
-0.346	7.355e-5	-3.645e-5
-0.345	7.515e-5	-3.615e-5
-0.344	7.671e-5	-3.584e-5
-0.343	7.824e-5	-3.553e-5
-0.342	7.972e-5	-3.521e-5
-0.341	8.116e-5	-3.488e-5
-0.340	8.253e-5	-3.455e-5
-0.339	8.386e-5	-3.422e-5
-0.338	8.515e-5	-3.388e-5
-0.337	8.639e-5	-3.353e-5
-0.336	8.759e-5	-3.318e-5
-0.335	8.872e-5	-3.283e-5
-0.334	8.980e-5	-3.247e-5
-0.333	9.083e-5	-3.210e-5
-0.332	9.182e-5	-3.174e-5
-0.331	9.277e-5	-3.137e-5
-0.330	9.366e-5	-3.099e-5
-0.329	9.449e-5	-3.061e-5
-0.328	9.529e-5	-3.023e-5
-0.327	9.603e-5	-2.985e-5
-0.326	9.672e-5	-2.946e-5
-0.325	9.734e-5	-2.907e-5
-0.324	9.792e-5	-2.868e-5
-0.323	9.846e-5	-2.829e-5
-0.322	9.896e-5	-2.789e-5
-0.321	9.940e-5	-2.749e-5
-0.320	9.980e-5	-2.709e-5
-0.319	1.001e-4	-2.669e-5
-0.318	1.005e-4	-2.629e-5
-0.317	1.007e-4	-2.589e-5
-0.316	1.010e-4	-2.548e-5
-0.315	1.012e-4	-2.508e-5
-0.314	1.013e-4	-2.467e-5
-0.313	1.015e-4	-2.427e-5
-0.312	1.016e-4	-2.386e-5
-0.311	1.016e-4	-2.345e-5
-0.310	1.016e-4	-2.305e-5
-0.309	1.016e-4	-2.264e-5
-0.308	1.016e-4	-2.224e-5
-0.307	1.015e-4	-2.183e-5
-0.306	1.015e-4	-2.142e-5
-0.305	1.014e-4	-2.102e-5
-0.304	1.012e-4	-2.061e-5
-0.303	1.011e-4	-2.021e-5
-0.302	1.009e-4	-1.981e-5
-0.301	1.007e-4	-1.940e-5
-0.300	1.005e-4	-1.900e-5
-0.299	1.002e-4	-1.860e-5
-0.298	9.997e-5	-1.820e-5
-0.297	9.970e-5	-1.780e-5
-0.296	9.942e-5	-1.740e-5
-0.295	9.913e-5	-1.701e-5
-0.294	9.882e-5	-1.661e-5
-0.293	9.851e-5	-1.622e-5
-0.292	9.820e-5	-1.582e-5
-0.291	9.788e-5	-1.543e-5
-0.290	9.755e-5	-1.504e-5
-0.289	9.720e-5	-1.465e-5
-0.288	9.686e-5	-1.427e-5
-0.287	9.650e-5	-1.388e-5
-0.286	9.615e-5	-1.350e-5
-0.285	9.578e-5	-1.311e-5
-0.284	9.541e-5	-1.273e-5
-0.283	9.504e-5	-1.235e-5
-0.282	9.468e-5	-1.197e-5
-0.281	9.431e-5	-1.160e-5
-0.280	9.394e-5	-1.122e-5
-0.279	9.356e-5	-1.085e-5
-0.278	9.319e-5	-1.047e-5
-0.277	9.282e-5	-1.010e-5
-0.276	9.245e-5	-9.731e-6
-0.275	9.208e-5	-9.363e-6
-0.274	9.172e-5	-8.996e-6
-0.273	9.135e-5	-8.631e-6
-0.272	9.099e-5	-8.267e-6
-0.271	9.064e-5	-7.904e-6
-0.270	9.029e-5	-7.543e-6
-0.269	8.994e-5	-7.183e-6
-0.268	8.960e-5	-6.825e-6
-0.267	8.926e-5	-6.468e-6
-0.266	8.891e-5	-6.112e-6
-0.265	8.857e-5	-5.758e-6
-0.264	8.824e-5	-5.405e-6
-0.263	8.792e-5	-5.053e-6
-0.262	8.760e-5	-4.703e-6
-0.261	8.728e-5	-4.354e-6
-0.260	8.696e-5	-4.006e-6
-0.259	8.665e-5	-3.659e-6
-0.258	8.634e-5	-3.314e-6
-0.257	8.603e-5	-2.970e-6
-0.256	8.573e-5	-2.627e-6
-0.255	8.544e-5	-2.285e-6
-0.254	8.514e-5	-1.945e-6
-0.253	8.486e-5	-1.605e-6
-0.252	8.458e-5	-1.267e-6
-0.251	8.431e-5	-9.296e-7
-0.250	8.403e-5	-5.934e-7
-0.249	8.376e-5	-2.584e-7
-0.248	8.349e-5	7.558e-8
-0.247	8.322e-5	4.085e-7
-0.246	8.297e-5	7.403e-7
-0.245	8.271e-5	1.071e-6
-0.244	8.246e-5	1.401e-6
-0.243	8.222e-5	1.730e-6
-0.242	8.197e-5	2.058e-6
-0.241	8.173e-5	2.385e-6
-0.240	8.148e-5	2.711e-6
-0.239	8.124e-5	3.036e-6
-0.238	8.100e-5	3.360e-6
-0.237	8.076e-5	3.683e-6
-0.236	8.053e-5	4.005e-6
-0.235	8.030e-5	4.326e-6
-0.234	8.007e-5	4.646e-6
-0.233	7.984e-5	4.966e-6
-0.232	7.961e-5	5.284e-6
-0.231	7.938e-5	5.602e-6
-0.230	7.915e-5	5.918e-6
-0.229	7.892e-5	6.234e-6
-0.228	7.869e-5	6.549e-6
-0.227	7.846e-5	6.862e-6
-0.226	7.823e-5	7.175e-6
-0.225	7.800e-5	7.487e-6
-0.224	7.777e-5	7.798e-6
-0.223	7.755e-5	8.109e-6
-0.222	7.733e-5	8.418e-6
-0.221	7.710e-5	8.726e-6
-0.220	7.687e-5	9.034e-6
-0.219	7.664e-5	9.340e-6
-0.218	7.642e-5	9.646e-6
-0.217	7.619e-5	9.951e-6
-0.216	7.596e-5	1.025e-5
-0.215	7.573e-5	1.056e-5
-0.214	7.551e-5	1.086e-5
-0.213	7.528e-5	1.116e-5
-0.212	7.504e-5	1.146e-5
-0.211	7.481e-5	1.176e-5
-0.210	7.457e-5	1.206e-5
-0.209	7.433e-5	1.236e-5
-0.208	7.410e-5	1.265e-5
-0.207	7.386e-5	1.295e-5
-0.206	7.362e-5	1.324e-5
-0.205	7.338e-5	1.354e-5
-0.204	7.314e-5	1.383e-5
-0.203	7.290e-5	1.412e-5
-0.202	7.266e-5	1.441e-5
-0.201	7.241e-5	1.470e-5
-0.200	7.216e-5	1.499e-5
-0.199	7.192e-5	1.528e-5
-0.198	7.167e-5	1.556e-5
-0.197	7.142e-5	1.585e-5
-0.196	7.117e-5	1.613e-5
-0.195	7.091e-5	1.642e-5
-0.194	7.066e-5	1.670e-5
-0.193	7.041e-5	1.698e-5
-0.192	7.016e-5	1.726e-5
-0.191	6.991e-5	1.754e-5
-0.190	6.965e-5	1.782e-5
-0.189	6.940e-5	1.810e-5
-0.188	6.914e-5	1.837e-5
-0.187	6.888e-5	1.865e-5
-0.186	6.862e-5	1.892e-5
-0.185	6.836e-5	1.920e-5
-0.184	6.811e-5	1.947e-5
-0.183	6.785e-5	1.974e-5
-0.182	6.760e-5	2.001e-5
-0.181	6.734e-5	2.028e-5
-0.180	6.707e-5	2.055e-5
-0.179	6.682e-5	2.082e-5
-0.178	6.656e-5	2.108e-5
-0.177	6.630e-5	2.135e-5
-0.176	6.603e-5	2.161e-5
-0.175	6.577e-5	2.188e-5
-0.174	6.551e-5	2.214e-5
-0.173	6.525e-5	2.240e-5
-0.172	6.499e-5	2.266e-5
-0.171	6.473e-5	2.292e-5
-0.170	6.448e-5	2.318e-5
-0.169	6.422e-5	2.343e-5
-0.168	6.396e-5	2.369e-5
-0.167	6.369e-5	2.394e-5
-0.166	6.343e-5	2.420e-5
-0.165	6.317e-5	2.445e-5
-0.164	6.291e-5	2.470e-5
-0.163	6.266e-5	2.495e-5
-0.162	6.240e-5	2.520e-5
-0.161	6.214e-5	2.545e-5
-0.160	6.188e-5	2.570e-5
-0.159	6.163e-5	2.594e-5
-0.158	6.137e-5	2.619e-5
-0.157	6.112e-5	2.643e-5
-0.156	6.087e-5	2.668e-5
-0.155	6.061e-5	2.692e-5
-0.154	6.037e-5	2.716e-5
-0.153	6.013e-5	2.740e-5
-0.152	5.988e-5	2.764e-5
-0.151	5.964e-5	2.788e-5
-0.150	5.939e-5	2.812e-5
-0.149	5.915e-5	2.835e-5
-0.148	5.890e-5	2.859e-5
-0.147	5.866e-5	2.882e-5
-0.146	5.841e-5	2.906e-5
-0.145	5.817e-5	2.929e-5
-0.144	5.793e-5	2.952e-5
-0.143	5.771e-5	2.975e-5
-0.142	5.748e-5	2.998e-5
-0.141	5.726e-5	3.021e-5
-0.140	5.704e-5	3.044e-5
-0.139	5.681e-5	3.067e-5
-0.138	5.659e-5	3.089e-5
-0.137	5.636e-5	3.112e-5
-0.136	5.614e-5	3.134e-5
-0.135	5.592e-5	3.157e-5
-0.134	5.571e-5	3.179e-5
-0.133	5.550e-5	3.201e-5
-0.132	5.530e-5	3.223e-5
-0.131	5.509e-5	3.245e-5
-0.130	5.488e-5	3.267e-5
-0.129	5.468e-5	3.289e-5
-0.128	5.448e-5	3.311e-5
-0.127	5.428e-5	3.333e-5
-0.126	5.408e-5	3.354e-5
-0.125	5.389e-5	3.376e-5
-0.124	5.370e-5	3.397e-5
-0.123	5.352e-5	3.419e-5
-0.122	5.334e-5	3.440e-5
-0.121	5.316e-5	3.461e-5
-0.120	5.298e-5	3.483e-5
-0.119	5.280e-5	3.504e-5
-0.118	5.262e-5	3.525e-5
-0.117	5.245e-5	3.546e-5
-0.116	5.227e-5	3.567e-5
-0.115	5.210e-5	3.587e-5
-0.114	5.194e-5	3.608e-5
-0.113	5.178e-5	3.629e-5
-0.112	5.161e-5	3.650e-5
-0.111	5.145e-5	3.670e-5
-0.110	5.129e-5	3.691e-5
-0.109	5.113e-5	3.711e-5
-0.108	5.098e-5	3.732e-5
-0.107	5.083e-5	3.752e-5
-0.106	5.067e-5	3.772e-5
-0.105	5.052e-5	3.792e-5
-0.104	5.036e-5	3.812e-5
-0.103	5.020e-5	3.833e-5
-0.102	5.005e-5	3.853e-5
-0.101	4.990e-5	3.873e-5
-0.100	4.974e-5	3.892e-5
-0.099	4.959e-5	3.912e-5
-0.098	4.944e-5	3.932e-5
-0.097	4.928e-5	3.952e-5
-0.096	4.912e-5	3.971e-5
-0.095	4.896e-5	3.991e-5
-0.094	4.881e-5	4.011e-5
-0.093	4.865e-5	4.030e-5
-0.092	4.850e-5	4.049e-5
-0.091	4.834e-5	4.069e-5
-0.090	4.818e-5	4.088e-5
-0.089	4.802e-5	4.107e-5
-0.088	4.785e-5	4.126e-5
-0.087	4.769e-5	4.145e-5
-0.086	4.753e-5	4.164e-5
-0.085	4.736e-5	4.183e-5
-0.084	4.719e-5	4.202e-5
-0.083	4.703e-5	4.221e-5
-0.082	4.686e-5	4.240e-5
-0.081	4.669e-5	4.258e-5
-0.080	4.653e-5	4.277e-5
-0.079	4.636e-5	4.296e-5
-0.078	4.620e-5	4.314e-5
-0.077	4.604e-5	4.333e-5
-0.076	4.587e-5	4.351e-5
-0.075	4.570e-5	4.369e-5
-0.074	4.553e-5	4.387e-5
-0.073	4.537e-5	4.406e-5
-0.072	4.521e-5	4.424e-5
-0.071	4.505e-5	4.442e-5
-0.070	4.489e-5	4.460e-5
-0.069	4.473e-5	4.477e-5
-0.068	4.456e-5	4.495e-5
-0.067	4.440e-5	4.513e-5
-0.066	4.424e-5	4.531e-5
-0.065	4.409e-5	4.548e-5
-0.064	4.393e-5	4.566e-5
-0.063	4.377e-5	4.583e-5
-0.062	4.361e-5	4.601e-5
-0.061	4.345e-5	4.618e-5
-0.060	4.329e-5	4.636e-5
-0.059	4.314e-5	4.653e-5
-0.058	4.299e-5	4.670e-5
-0.057	4.284e-5	4.687e-5
-0.056	4.268e-5	4.704e-5
-0.055	4.253e-5	4.721e-5
-0.054	4.239e-5	4.738e-5
-0.053	4.224e-5	4.755e-5
-0.052	4.210e-5	4.772e-5
-0.051	4.196e-5	4.789e-5
-0.050	4.181e-5	4.805e-5
-0.049	4.167e-5	4.822e-5
-0.048	4.153e-5	4.839e-5
-0.047	4.139e-5	4.855e-5
-0.046	4.125e-5	4.872e-5
-0.045	4.111e-5	4.888e-5
-0.044	4.097e-5	4.905e-5
-0.043	4.083e-5	4.921e-5
-0.042	4.070e-5	4.937e-5
-0.041	4.057e-5	4.954e-5
-0.040	4.044e-5	4.970e-5
-0.039	4.031e-5	4.986e-5
-0.038	4.018e-5	5.002e-5
-0.037	4.004e-5	5.018e-5
-0.036	3.991e-5	5.034e-5
-0.035	3.978e-5	5.050e-5
-0.034	3.966e-5	5.066e-5
-0.033	3.953e-5	5.081e-5
-0.032	3.941e-5	5.097e-5
-0.031	3.928e-5	5.113e-5
-0.030	3.915e-5	5.129e-5
-0.029	3.902e-5	5.144e-5
-0.028	3.891e-5	5.160e-5
-0.027	3.879e-5	5.175e-5
-0.026	3.866e-5	5.191e-5
-0.025	3.853e-5	5.206e-5
-0.024	3.841e-5	5.222e-5
-0.023	3.830e-5	5.237e-5
-0.022	3.819e-5	5.252e-5
-0.021	3.807e-5	5.267e-5
-0.020	3.796e-5	5.283e-5
-0.019	3.785e-5	5.298e-5
-0.018	3.774e-5	5.313e-5
-0.017	3.762e-5	5.328e-5
-0.016	3.751e-5	5.343e-5
-0.015	3.739e-5	5.358e-5
-0.014	3.728e-5	5.373e-5
-0.013	3.717e-5	5.388e-5
-0.012	3.706e-5	5.402e-5
-0.011	3.696e-5	5.417e-5
-0.010	3.685e-5	5.432e-5
-0.009	3.674e-5	5.447e-5
-0.008	3.664e-5	5.461e-5
-0.007	3.654e-5	5.476e-5
-0.006	3.644e-5	5.490e-5
-0.005	3.633e-5	5.505e-5
-0.004	3.623e-5	5.519e-5
-0.003	3.614e-5	5.534e-5
-0.002	3.604e-5	5.548e-5
-0.001	3.594e-5	5.563e-5
