Nov. 4, 2019   15:09:10
Cyclic Voltammetry
File: c:\users\alex\desktop\living in denmark\dtu master\4th semester-thesis\thesis\thesis alexandros pasadakis\data_thesis\quinoxaline\cv\dsdmqui_cv\ph_2\cv_2,3-dsqui_1m_kcl_10mm_hcl_scan_rates_006.txt
Data Source:  Experiment
Instrument Model:  CHI760E
Data Proc:  Smoothing
Header: 
Note: 

Init E (V) = 0
High E (V) = 0
Low E (V) = -0.6
Init P/N = N
Scan Rate (V/s) = 0.5
Segment = 6
Sample Interval (V) = 0.001
Quiet Time (sec) = 2
Sensitivity (A/V) = 1e-4

Segment 1:
Ep = -0.385V
Eh = -0.337V
ip = -2.285e-4A

Segment 2:
Ep = -0.308V
Eh = -0.370V
ip = 1.550e-4A

Segment 3:
Ep = -0.386V
Eh = -0.336V
ip = -2.063e-4A

Segment 4:
Ep = -0.308V
Eh = -0.370V
ip = 1.546e-4A

Segment 5:
Ep = -0.386V
Eh = -0.336V
ip = -2.016e-4A

Segment 6:
Ep = -0.308V
Eh = -0.369V
ip = 1.542e-4A

Potential/V	Current/A

0.000	2.158e-6	4.315e-9
-0.001	1.696e-6	7.707e-9
-0.002	1.336e-6	1.038e-8
-0.003	1.078e-6	1.254e-8
-0.004	9.587e-7	1.445e-8
-0.005	9.047e-7	1.626e-8
-0.006	8.716e-7	1.801e-8
-0.007	8.248e-7	1.966e-8
-0.008	7.859e-7	2.123e-8
-0.009	7.521e-7	2.273e-8
-0.010	7.205e-7	2.417e-8
-0.011	6.896e-7	2.555e-8
-0.012	6.587e-7	2.687e-8
-0.013	6.283e-7	2.813e-8
-0.014	5.962e-7	2.932e-8
-0.015	5.660e-7	3.045e-8
-0.016	5.393e-7	3.153e-8
-0.017	5.152e-7	3.256e-8
-0.018	4.937e-7	3.355e-8
-0.019	4.710e-7	3.449e-8
-0.020	4.478e-7	3.538e-8
-0.021	4.254e-7	3.623e-8
-0.022	4.030e-7	3.704e-8
-0.023	3.779e-7	3.780e-8
-0.024	3.518e-7	3.850e-8
-0.025	3.256e-7	3.915e-8
-0.026	3.005e-7	3.975e-8
-0.027	2.781e-7	4.031e-8
-0.028	2.560e-7	4.082e-8
-0.029	2.319e-7	4.128e-8
-0.030	2.082e-7	4.170e-8
-0.031	1.872e-7	4.208e-8
-0.032	1.669e-7	4.241e-8
-0.033	1.480e-7	4.271e-8
-0.034	1.273e-7	4.296e-8
-0.035	1.020e-7	4.316e-8
-0.036	7.496e-8	4.331e-8
-0.037	4.797e-8	4.341e-8
-0.038	2.266e-8	4.345e-8
-0.039	1.877e-9	4.346e-8
-0.040	-1.730e-8	4.342e-8
-0.041	-3.676e-8	4.335e-8
-0.042	-5.642e-8	4.324e-8
-0.043	-8.153e-8	4.307e-8
-0.044	-1.104e-7	4.285e-8
-0.045	-1.395e-7	4.257e-8
-0.046	-1.684e-7	4.224e-8
-0.047	-1.935e-7	4.185e-8
-0.048	-2.131e-7	4.142e-8
-0.049	-2.326e-7	4.096e-8
-0.050	-2.520e-7	4.046e-8
-0.051	-2.720e-7	3.991e-8
-0.052	-2.960e-7	3.932e-8
-0.053	-3.249e-7	3.867e-8
-0.054	-3.550e-7	3.796e-8
-0.055	-3.850e-7	3.719e-8
-0.056	-4.142e-7	3.636e-8
-0.057	-4.419e-7	3.548e-8
-0.058	-4.697e-7	3.454e-8
-0.059	-4.986e-7	3.354e-8
-0.060	-5.245e-7	3.249e-8
-0.061	-5.488e-7	3.139e-8
-0.062	-5.774e-7	3.024e-8
-0.063	-6.117e-7	2.902e-8
-0.064	-6.510e-7	2.771e-8
-0.065	-6.906e-7	2.633e-8
-0.066	-7.260e-7	2.488e-8
-0.067	-7.573e-7	2.337e-8
-0.068	-7.862e-7	2.179e-8
-0.069	-8.153e-7	2.016e-8
-0.070	-8.461e-7	1.847e-8
-0.071	-8.795e-7	1.671e-8
-0.072	-9.187e-7	1.488e-8
-0.073	-9.626e-7	1.295e-8
-0.074	-1.008e-6	1.093e-8
-0.075	-1.052e-6	8.830e-9
-0.076	-1.094e-6	6.643e-9
-0.077	-1.136e-6	4.371e-9
-0.078	-1.179e-6	2.014e-9
-0.079	-1.222e-6	-4.299e-10
-0.080	-1.266e-6	-2.963e-9
-0.081	-1.311e-6	-5.586e-9
-0.082	-1.359e-6	-8.303e-9
-0.083	-1.412e-6	-1.113e-8
-0.084	-1.468e-6	-1.406e-8
-0.085	-1.527e-6	-1.712e-8
-0.086	-1.587e-6	-2.029e-8
-0.087	-1.644e-6	-2.358e-8
-0.088	-1.698e-6	-2.698e-8
-0.089	-1.750e-6	-3.048e-8
-0.090	-1.804e-6	-3.408e-8
-0.091	-1.862e-6	-3.781e-8
-0.092	-1.922e-6	-4.165e-8
-0.093	-1.986e-6	-4.562e-8
-0.094	-2.048e-6	-4.972e-8
-0.095	-2.108e-6	-5.394e-8
-0.096	-2.167e-6	-5.827e-8
-0.097	-2.226e-6	-6.272e-8
-0.098	-2.284e-6	-6.729e-8
-0.099	-2.344e-6	-7.198e-8
-0.100	-2.402e-6	-7.678e-8
-0.101	-2.457e-6	-8.170e-8
-0.102	-2.514e-6	-8.672e-8
-0.103	-2.571e-6	-9.187e-8
-0.104	-2.628e-6	-9.712e-8
-0.105	-2.683e-6	-1.025e-7
-0.106	-2.733e-6	-1.080e-7
-0.107	-2.781e-6	-1.135e-7
-0.108	-2.825e-6	-1.192e-7
-0.109	-2.869e-6	-1.249e-7
-0.110	-2.906e-6	-1.307e-7
-0.111	-2.940e-6	-1.366e-7
-0.112	-2.972e-6	-1.425e-7
-0.113	-3.005e-6	-1.485e-7
-0.114	-3.039e-6	-1.546e-7
-0.115	-3.074e-6	-1.608e-7
-0.116	-3.102e-6	-1.670e-7
-0.117	-3.127e-6	-1.732e-7
-0.118	-3.147e-6	-1.795e-7
-0.119	-3.162e-6	-1.858e-7
-0.120	-3.176e-6	-1.922e-7
-0.121	-3.187e-6	-1.986e-7
-0.122	-3.196e-6	-2.050e-7
-0.123	-3.205e-6	-2.114e-7
-0.124	-3.213e-6	-2.178e-7
-0.125	-3.221e-6	-2.242e-7
-0.126	-3.229e-6	-2.307e-7
-0.127	-3.234e-6	-2.372e-7
-0.128	-3.233e-6	-2.436e-7
-0.129	-3.227e-6	-2.501e-7
-0.130	-3.220e-6	-2.565e-7
-0.131	-3.215e-6	-2.630e-7
-0.132	-3.214e-6	-2.694e-7
-0.133	-3.216e-6	-2.758e-7
-0.134	-3.218e-6	-2.823e-7
-0.135	-3.217e-6	-2.887e-7
-0.136	-3.214e-6	-2.951e-7
-0.137	-3.207e-6	-3.015e-7
-0.138	-3.196e-6	-3.079e-7
-0.139	-3.185e-6	-3.143e-7
-0.140	-3.174e-6	-3.206e-7
-0.141	-3.163e-6	-3.270e-7
-0.142	-3.156e-6	-3.333e-7
-0.143	-3.153e-6	-3.396e-7
-0.144	-3.153e-6	-3.459e-7
-0.145	-3.154e-6	-3.522e-7
-0.146	-3.155e-6	-3.585e-7
-0.147	-3.152e-6	-3.648e-7
-0.148	-3.148e-6	-3.711e-7
-0.149	-3.142e-6	-3.774e-7
-0.150	-3.136e-6	-3.837e-7
-0.151	-3.128e-6	-3.899e-7
-0.152	-3.125e-6	-3.962e-7
-0.153	-3.126e-6	-4.024e-7
-0.154	-3.133e-6	-4.087e-7
-0.155	-3.143e-6	-4.150e-7
-0.156	-3.151e-6	-4.213e-7
-0.157	-3.154e-6	-4.276e-7
-0.158	-3.155e-6	-4.339e-7
-0.159	-3.157e-6	-4.402e-7
-0.160	-3.163e-6	-4.465e-7
-0.161	-3.173e-6	-4.529e-7
-0.162	-3.184e-6	-4.593e-7
-0.163	-3.195e-6	-4.656e-7
-0.164	-3.209e-6	-4.721e-7
-0.165	-3.223e-6	-4.785e-7
-0.166	-3.238e-6	-4.850e-7
-0.167	-3.253e-6	-4.915e-7
-0.168	-3.270e-6	-4.980e-7
-0.169	-3.287e-6	-5.046e-7
-0.170	-3.307e-6	-5.112e-7
-0.171	-3.327e-6	-5.179e-7
-0.172	-3.348e-6	-5.246e-7
-0.173	-3.372e-6	-5.313e-7
-0.174	-3.400e-6	-5.381e-7
-0.175	-3.429e-6	-5.450e-7
-0.176	-3.462e-6	-5.519e-7
-0.177	-3.492e-6	-5.589e-7
-0.178	-3.522e-6	-5.659e-7
-0.179	-3.553e-6	-5.730e-7
-0.180	-3.587e-6	-5.802e-7
-0.181	-3.625e-6	-5.874e-7
-0.182	-3.665e-6	-5.948e-7
-0.183	-3.707e-6	-6.022e-7
-0.184	-3.749e-6	-6.097e-7
-0.185	-3.792e-6	-6.173e-7
-0.186	-3.837e-6	-6.249e-7
-0.187	-3.884e-6	-6.327e-7
-0.188	-3.933e-6	-6.406e-7
-0.189	-3.984e-6	-6.485e-7
-0.190	-4.034e-6	-6.566e-7
-0.191	-4.084e-6	-6.648e-7
-0.192	-4.140e-6	-6.731e-7
-0.193	-4.203e-6	-6.815e-7
-0.194	-4.270e-6	-6.900e-7
-0.195	-4.339e-6	-6.987e-7
-0.196	-4.405e-6	-7.075e-7
-0.197	-4.466e-6	-7.164e-7
-0.198	-4.531e-6	-7.255e-7
-0.199	-4.597e-6	-7.347e-7
-0.200	-4.668e-6	-7.440e-7
-0.201	-4.744e-6	-7.535e-7
-0.202	-4.823e-6	-7.631e-7
-0.203	-4.908e-6	-7.730e-7
-0.204	-4.998e-6	-7.830e-7
-0.205	-5.091e-6	-7.931e-7
-0.206	-5.183e-6	-8.035e-7
-0.207	-5.275e-6	-8.141e-7
-0.208	-5.367e-6	-8.248e-7
-0.209	-5.462e-6	-8.357e-7
-0.210	-5.562e-6	-8.468e-7
-0.211	-5.667e-6	-8.582e-7
-0.212	-5.773e-6	-8.697e-7
-0.213	-5.882e-6	-8.815e-7
-0.214	-5.993e-6	-8.935e-7
-0.215	-6.108e-6	-9.057e-7
-0.216	-6.228e-6	-9.181e-7
-0.217	-6.351e-6	-9.308e-7
-0.218	-6.474e-6	-9.438e-7
-0.219	-6.598e-6	-9.570e-7
-0.220	-6.723e-6	-9.704e-7
-0.221	-6.852e-6	-9.841e-7
-0.222	-6.988e-6	-9.981e-7
-0.223	-7.129e-6	-1.012e-6
-0.224	-7.276e-6	-1.027e-6
-0.225	-7.426e-6	-1.042e-6
-0.226	-7.580e-6	-1.057e-6
-0.227	-7.738e-6	-1.072e-6
-0.228	-7.900e-6	-1.088e-6
-0.229	-8.066e-6	-1.104e-6
-0.230	-8.234e-6	-1.121e-6
-0.231	-8.403e-6	-1.138e-6
-0.232	-8.575e-6	-1.155e-6
-0.233	-8.753e-6	-1.172e-6
-0.234	-8.937e-6	-1.190e-6
-0.235	-9.126e-6	-1.208e-6
-0.236	-9.316e-6	-1.227e-6
-0.237	-9.505e-6	-1.246e-6
-0.238	-9.698e-6	-1.265e-6
-0.239	-9.896e-6	-1.285e-6
-0.240	-1.010e-5	-1.305e-6
-0.241	-1.032e-5	-1.326e-6
-0.242	-1.054e-5	-1.347e-6
-0.243	-1.077e-5	-1.369e-6
-0.244	-1.101e-5	-1.391e-6
-0.245	-1.124e-5	-1.413e-6
-0.246	-1.148e-5	-1.436e-6
-0.247	-1.171e-5	-1.460e-6
-0.248	-1.195e-5	-1.483e-6
-0.249	-1.219e-5	-1.508e-6
-0.250	-1.245e-5	-1.533e-6
-0.251	-1.272e-5	-1.558e-6
-0.252	-1.299e-5	-1.584e-6
-0.253	-1.328e-5	-1.611e-6
-0.254	-1.357e-5	-1.638e-6
-0.255	-1.386e-5	-1.666e-6
-0.256	-1.416e-5	-1.694e-6
-0.257	-1.447e-5	-1.723e-6
-0.258	-1.479e-5	-1.752e-6
-0.259	-1.511e-5	-1.783e-6
-0.260	-1.545e-5	-1.814e-6
-0.261	-1.580e-5	-1.845e-6
-0.262	-1.616e-5	-1.877e-6
-0.263	-1.653e-5	-1.911e-6
-0.264	-1.690e-5	-1.944e-6
-0.265	-1.728e-5	-1.979e-6
-0.266	-1.767e-5	-2.014e-6
-0.267	-1.808e-5	-2.050e-6
-0.268	-1.850e-5	-2.087e-6
-0.269	-1.893e-5	-2.125e-6
-0.270	-1.937e-5	-2.164e-6
-0.271	-1.982e-5	-2.204e-6
-0.272	-2.028e-5	-2.244e-6
-0.273	-2.076e-5	-2.286e-6
-0.274	-2.126e-5	-2.328e-6
-0.275	-2.178e-5	-2.372e-6
-0.276	-2.232e-5	-2.416e-6
-0.277	-2.287e-5	-2.462e-6
-0.278	-2.345e-5	-2.509e-6
-0.279	-2.404e-5	-2.557e-6
-0.280	-2.465e-5	-2.606e-6
-0.281	-2.528e-5	-2.657e-6
-0.282	-2.592e-5	-2.709e-6
-0.283	-2.660e-5	-2.762e-6
-0.284	-2.730e-5	-2.817e-6
-0.285	-2.803e-5	-2.873e-6
-0.286	-2.879e-5	-2.930e-6
-0.287	-2.957e-5	-2.989e-6
-0.288	-3.039e-5	-3.050e-6
-0.289	-3.123e-5	-3.113e-6
-0.290	-3.211e-5	-3.177e-6
-0.291	-3.302e-5	-3.243e-6
-0.292	-3.397e-5	-3.311e-6
-0.293	-3.495e-5	-3.381e-6
-0.294	-3.597e-5	-3.453e-6
-0.295	-3.704e-5	-3.527e-6
-0.296	-3.816e-5	-3.603e-6
-0.297	-3.932e-5	-3.682e-6
-0.298	-4.053e-5	-3.763e-6
-0.299	-4.178e-5	-3.846e-6
-0.300	-4.308e-5	-3.933e-6
-0.301	-4.444e-5	-4.021e-6
-0.302	-4.585e-5	-4.113e-6
-0.303	-4.732e-5	-4.208e-6
-0.304	-4.886e-5	-4.306e-6
-0.305	-5.047e-5	-4.406e-6
-0.306	-5.215e-5	-4.511e-6
-0.307	-5.390e-5	-4.619e-6
-0.308	-5.571e-5	-4.730e-6
-0.309	-5.759e-5	-4.845e-6
-0.310	-5.954e-5	-4.964e-6
-0.311	-6.157e-5	-5.087e-6
-0.312	-6.368e-5	-5.215e-6
-0.313	-6.589e-5	-5.347e-6
-0.314	-6.818e-5	-5.483e-6
-0.315	-7.056e-5	-5.624e-6
-0.316	-7.302e-5	-5.770e-6
-0.317	-7.557e-5	-5.921e-6
-0.318	-7.822e-5	-6.078e-6
-0.319	-8.095e-5	-6.239e-6
-0.320	-8.378e-5	-6.407e-6
-0.321	-8.669e-5	-6.580e-6
-0.322	-8.968e-5	-6.760e-6
-0.323	-9.277e-5	-6.945e-6
-0.324	-9.596e-5	-7.137e-6
-0.325	-9.925e-5	-7.336e-6
-0.326	-1.026e-4	-7.541e-6
-0.327	-1.061e-4	-7.753e-6
-0.328	-1.096e-4	-7.973e-6
-0.329	-1.133e-4	-8.199e-6
-0.330	-1.170e-4	-8.433e-6
-0.331	-1.207e-4	-8.674e-6
-0.332	-1.245e-4	-8.923e-6
-0.333	-1.284e-4	-9.180e-6
-0.334	-1.324e-4	-9.445e-6
-0.335	-1.364e-4	-9.718e-6
-0.336	-1.404e-4	-9.999e-6
-0.337	-1.445e-4	-1.029e-5
-0.338	-1.486e-4	-1.058e-5
-0.339	-1.527e-4	-1.089e-5
-0.340	-1.569e-4	-1.120e-5
-0.341	-1.610e-4	-1.153e-5
-0.342	-1.651e-4	-1.186e-5
-0.343	-1.692e-4	-1.219e-5
-0.344	-1.733e-4	-1.254e-5
-0.345	-1.774e-4	-1.290e-5
-0.346	-1.815e-4	-1.326e-5
-0.347	-1.855e-4	-1.363e-5
-0.348	-1.895e-4	-1.401e-5
-0.349	-1.934e-4	-1.440e-5
-0.350	-1.973e-4	-1.479e-5
-0.351	-2.011e-4	-1.519e-5
-0.352	-2.048e-4	-1.560e-5
-0.353	-2.084e-4	-1.602e-5
-0.354	-2.119e-4	-1.644e-5
-0.355	-2.154e-4	-1.687e-5
-0.356	-2.188e-4	-1.731e-5
-0.357	-2.221e-4	-1.776e-5
-0.358	-2.253e-4	-1.821e-5
-0.359	-2.284e-4	-1.866e-5
-0.360	-2.314e-4	-1.913e-5
-0.361	-2.342e-4	-1.959e-5
-0.362	-2.369e-4	-2.007e-5
-0.363	-2.395e-4	-2.055e-5
-0.364	-2.421e-4	-2.103e-5
-0.365	-2.445e-4	-2.152e-5
-0.366	-2.468e-4	-2.201e-5
-0.367	-2.490e-4	-2.251e-5
-0.368	-2.510e-4	-2.301e-5
-0.369	-2.530e-4	-2.352e-5
-0.370	-2.548e-4	-2.403e-5
-0.371	-2.564e-4	-2.454e-5
-0.372	-2.580e-4	-2.506e-5
-0.373	-2.594e-4	-2.558e-5
-0.374	-2.607e-4	-2.610e-5
-0.375	-2.619e-4	-2.662e-5
-0.376	-2.630e-4	-2.715e-5
-0.377	-2.640e-4	-2.768e-5
-0.378	-2.649e-4	-2.821e-5
-0.379	-2.656e-4	-2.874e-5
-0.380	-2.662e-4	-2.927e-5
-0.381	-2.667e-4	-2.980e-5
-0.382	-2.671e-4	-3.034e-5
-0.383	-2.674e-4	-3.087e-5
-0.384	-2.675e-4	-3.141e-5
-0.385	-2.676e-4	-3.194e-5
-0.386	-2.676e-4	-3.248e-5
-0.387	-2.675e-4	-3.301e-5
-0.388	-2.673e-4	-3.355e-5
-0.389	-2.670e-4	-3.408e-5
-0.390	-2.666e-4	-3.461e-5
-0.391	-2.661e-4	-3.515e-5
-0.392	-2.656e-4	-3.568e-5
-0.393	-2.649e-4	-3.621e-5
-0.394	-2.642e-4	-3.674e-5
-0.395	-2.635e-4	-3.726e-5
-0.396	-2.627e-4	-3.779e-5
-0.397	-2.618e-4	-3.831e-5
-0.398	-2.609e-4	-3.883e-5
-0.399	-2.599e-4	-3.935e-5
-0.400	-2.588e-4	-3.987e-5
-0.401	-2.577e-4	-4.039e-5
-0.402	-2.565e-4	-4.090e-5
-0.403	-2.553e-4	-4.141e-5
-0.404	-2.541e-4	-4.192e-5
-0.405	-2.528e-4	-4.242e-5
-0.406	-2.516e-4	-4.293e-5
-0.407	-2.503e-4	-4.343e-5
-0.408	-2.489e-4	-4.393e-5
-0.409	-2.476e-4	-4.442e-5
-0.410	-2.462e-4	-4.491e-5
-0.411	-2.447e-4	-4.540e-5
-0.412	-2.433e-4	-4.589e-5
-0.413	-2.419e-4	-4.637e-5
-0.414	-2.404e-4	-4.685e-5
-0.415	-2.390e-4	-4.733e-5
-0.416	-2.375e-4	-4.781e-5
-0.417	-2.361e-4	-4.828e-5
-0.418	-2.346e-4	-4.875e-5
-0.419	-2.332e-4	-4.921e-5
-0.420	-2.317e-4	-4.968e-5
-0.421	-2.302e-4	-5.014e-5
-0.422	-2.287e-4	-5.060e-5
-0.423	-2.273e-4	-5.105e-5
-0.424	-2.258e-4	-5.150e-5
-0.425	-2.244e-4	-5.195e-5
-0.426	-2.230e-4	-5.240e-5
-0.427	-2.215e-4	-5.284e-5
-0.428	-2.201e-4	-5.328e-5
-0.429	-2.187e-4	-5.372e-5
-0.430	-2.173e-4	-5.415e-5
-0.431	-2.159e-4	-5.458e-5
-0.432	-2.145e-4	-5.501e-5
-0.433	-2.131e-4	-5.544e-5
-0.434	-2.118e-4	-5.586e-5
-0.435	-2.105e-4	-5.628e-5
-0.436	-2.091e-4	-5.670e-5
-0.437	-2.078e-4	-5.712e-5
-0.438	-2.065e-4	-5.753e-5
-0.439	-2.052e-4	-5.794e-5
-0.440	-2.039e-4	-5.835e-5
-0.441	-2.027e-4	-5.875e-5
-0.442	-2.014e-4	-5.916e-5
-0.443	-2.002e-4	-5.956e-5
-0.444	-1.990e-4	-5.995e-5
-0.445	-1.978e-4	-6.035e-5
-0.446	-1.966e-4	-6.074e-5
-0.447	-1.954e-4	-6.113e-5
-0.448	-1.943e-4	-6.152e-5
-0.449	-1.931e-4	-6.191e-5
-0.450	-1.920e-4	-6.229e-5
-0.451	-1.908e-4	-6.267e-5
-0.452	-1.897e-4	-6.305e-5
-0.453	-1.886e-4	-6.343e-5
-0.454	-1.876e-4	-6.381e-5
-0.455	-1.865e-4	-6.418e-5
-0.456	-1.855e-4	-6.455e-5
-0.457	-1.845e-4	-6.492e-5
-0.458	-1.834e-4	-6.529e-5
-0.459	-1.824e-4	-6.565e-5
-0.460	-1.814e-4	-6.601e-5
-0.461	-1.804e-4	-6.638e-5
-0.462	-1.795e-4	-6.673e-5
-0.463	-1.785e-4	-6.709e-5
-0.464	-1.776e-4	-6.745e-5
-0.465	-1.766e-4	-6.780e-5
-0.466	-1.757e-4	-6.815e-5
-0.467	-1.748e-4	-6.850e-5
-0.468	-1.739e-4	-6.885e-5
-0.469	-1.730e-4	-6.919e-5
-0.470	-1.722e-4	-6.954e-5
-0.471	-1.713e-4	-6.988e-5
-0.472	-1.705e-4	-7.022e-5
-0.473	-1.696e-4	-7.056e-5
-0.474	-1.688e-4	-7.090e-5
-0.475	-1.680e-4	-7.124e-5
-0.476	-1.672e-4	-7.157e-5
-0.477	-1.664e-4	-7.190e-5
-0.478	-1.656e-4	-7.223e-5
-0.479	-1.648e-4	-7.256e-5
-0.480	-1.641e-4	-7.289e-5
-0.481	-1.633e-4	-7.322e-5
-0.482	-1.626e-4	-7.354e-5
-0.483	-1.618e-4	-7.387e-5
-0.484	-1.611e-4	-7.419e-5
-0.485	-1.604e-4	-7.451e-5
-0.486	-1.597e-4	-7.483e-5
-0.487	-1.590e-4	-7.515e-5
-0.488	-1.583e-4	-7.546e-5
-0.489	-1.576e-4	-7.578e-5
-0.490	-1.569e-4	-7.609e-5
-0.491	-1.563e-4	-7.641e-5
-0.492	-1.556e-4	-7.672e-5
-0.493	-1.550e-4	-7.703e-5
-0.494	-1.544e-4	-7.734e-5
-0.495	-1.537e-4	-7.764e-5
-0.496	-1.531e-4	-7.795e-5
-0.497	-1.525e-4	-7.825e-5
-0.498	-1.519e-4	-7.856e-5
-0.499	-1.513e-4	-7.886e-5
-0.500	-1.507e-4	-7.916e-5
-0.501	-1.501e-4	-7.946e-5
-0.502	-1.495e-4	-7.976e-5
-0.503	-1.489e-4	-8.006e-5
-0.504	-1.484e-4	-8.036e-5
-0.505	-1.478e-4	-8.065e-5
-0.506	-1.472e-4	-8.095e-5
-0.507	-1.467e-4	-8.124e-5
-0.508	-1.462e-4	-8.153e-5
-0.509	-1.456e-4	-8.182e-5
-0.510	-1.451e-4	-8.211e-5
-0.511	-1.446e-4	-8.240e-5
-0.512	-1.440e-4	-8.269e-5
-0.513	-1.435e-4	-8.298e-5
-0.514	-1.430e-4	-8.326e-5
-0.515	-1.425e-4	-8.355e-5
-0.516	-1.420e-4	-8.383e-5
-0.517	-1.415e-4	-8.412e-5
-0.518	-1.410e-4	-8.440e-5
-0.519	-1.406e-4	-8.468e-5
-0.520	-1.401e-4	-8.496e-5
-0.521	-1.396e-4	-8.524e-5
-0.522	-1.391e-4	-8.552e-5
-0.523	-1.387e-4	-8.579e-5
-0.524	-1.383e-4	-8.607e-5
-0.525	-1.378e-4	-8.635e-5
-0.526	-1.374e-4	-8.662e-5
-0.527	-1.369e-4	-8.689e-5
-0.528	-1.365e-4	-8.717e-5
-0.529	-1.361e-4	-8.744e-5
-0.530	-1.356e-4	-8.771e-5
-0.531	-1.352e-4	-8.798e-5
-0.532	-1.348e-4	-8.825e-5
-0.533	-1.344e-4	-8.852e-5
-0.534	-1.340e-4	-8.879e-5
-0.535	-1.336e-4	-8.905e-5
-0.536	-1.331e-4	-8.932e-5
-0.537	-1.327e-4	-8.959e-5
-0.538	-1.323e-4	-8.985e-5
-0.539	-1.319e-4	-9.011e-5
-0.540	-1.316e-4	-9.038e-5
-0.541	-1.312e-4	-9.064e-5
-0.542	-1.308e-4	-9.090e-5
-0.543	-1.304e-4	-9.116e-5
-0.544	-1.300e-4	-9.142e-5
-0.545	-1.297e-4	-9.168e-5
-0.546	-1.293e-4	-9.194e-5
-0.547	-1.289e-4	-9.220e-5
-0.548	-1.286e-4	-9.246e-5
-0.549	-1.282e-4	-9.271e-5
-0.550	-1.279e-4	-9.297e-5
-0.551	-1.275e-4	-9.322e-5
-0.552	-1.272e-4	-9.348e-5
-0.553	-1.268e-4	-9.373e-5
-0.554	-1.265e-4	-9.398e-5
-0.555	-1.261e-4	-9.424e-5
-0.556	-1.258e-4	-9.449e-5
-0.557	-1.255e-4	-9.474e-5
-0.558	-1.251e-4	-9.499e-5
-0.559	-1.248e-4	-9.524e-5
-0.560	-1.245e-4	-9.549e-5
-0.561	-1.242e-4	-9.574e-5
-0.562	-1.238e-4	-9.598e-5
-0.563	-1.235e-4	-9.623e-5
-0.564	-1.232e-4	-9.648e-5
-0.565	-1.229e-4	-9.672e-5
-0.566	-1.226e-4	-9.697e-5
-0.567	-1.223e-4	-9.721e-5
-0.568	-1.220e-4	-9.746e-5
-0.569	-1.217e-4	-9.770e-5
-0.570	-1.214e-4	-9.794e-5
-0.571	-1.211e-4	-9.819e-5
-0.572	-1.208e-4	-9.843e-5
-0.573	-1.205e-4	-9.867e-5
-0.574	-1.202e-4	-9.891e-5
-0.575	-1.199e-4	-9.915e-5
-0.576	-1.197e-4	-9.939e-5
-0.577	-1.194e-4	-9.963e-5
-0.578	-1.191e-4	-9.986e-5
-0.579	-1.188e-4	-1.001e-4
-0.580	-1.185e-4	-1.003e-4
-0.581	-1.182e-4	-1.006e-4
-0.582	-1.180e-4	-1.008e-4
-0.583	-1.177e-4	-1.010e-4
-0.584	-1.174e-4	-1.013e-4
-0.585	-1.172e-4	-1.015e-4
-0.586	-1.169e-4	-1.017e-4
-0.587	-1.167e-4	-1.020e-4
-0.588	-1.164e-4	-1.022e-4
-0.589	-1.161e-4	-1.024e-4
-0.590	-1.159e-4	-1.027e-4
-0.591	-1.156e-4	-1.029e-4
-0.592	-1.154e-4	-1.031e-4
-0.593	-1.151e-4	-1.034e-4
-0.594	-1.149e-4	-1.036e-4
-0.595	-1.146e-4	-1.038e-4
-0.596	-1.144e-4	-1.041e-4
-0.597	-1.142e-4	-1.043e-4
-0.598	-1.139e-4	-1.045e-4
-0.599	-1.137e-4	-1.047e-4
-0.600	-1.130e-4	-2.259e-7
-0.599	-1.122e-4	-4.502e-7
-0.598	-1.115e-4	-6.731e-7
-0.597	-1.109e-4	-8.949e-7
-0.596	-1.105e-4	-1.116e-6
-0.595	-1.101e-4	-1.336e-6
-0.594	-1.098e-4	-1.556e-6
-0.593	-1.095e-4	-1.775e-6
-0.592	-1.092e-4	-1.993e-6
-0.591	-1.089e-4	-2.211e-6
-0.590	-1.086e-4	-2.428e-6
-0.589	-1.083e-4	-2.645e-6
-0.588	-1.080e-4	-2.860e-6
-0.587	-1.077e-4	-3.076e-6
-0.586	-1.074e-4	-3.291e-6
-0.585	-1.071e-4	-3.505e-6
-0.584	-1.069e-4	-3.719e-6
-0.583	-1.066e-4	-3.932e-6
-0.582	-1.063e-4	-4.144e-6
-0.581	-1.061e-4	-4.357e-6
-0.580	-1.058e-4	-4.568e-6
-0.579	-1.055e-4	-4.779e-6
-0.578	-1.053e-4	-4.990e-6
-0.577	-1.050e-4	-5.200e-6
-0.576	-1.048e-4	-5.409e-6
-0.575	-1.046e-4	-5.619e-6
-0.574	-1.043e-4	-5.827e-6
-0.573	-1.041e-4	-6.035e-6
-0.572	-1.038e-4	-6.243e-6
-0.571	-1.036e-4	-6.450e-6
-0.570	-1.034e-4	-6.657e-6
-0.569	-1.031e-4	-6.863e-6
-0.568	-1.029e-4	-7.069e-6
-0.567	-1.027e-4	-7.274e-6
-0.566	-1.024e-4	-7.479e-6
-0.565	-1.022e-4	-7.684e-6
-0.564	-1.020e-4	-7.887e-6
-0.563	-1.018e-4	-8.091e-6
-0.562	-1.015e-4	-8.294e-6
-0.561	-1.013e-4	-8.497e-6
-0.560	-1.011e-4	-8.699e-6
-0.559	-1.009e-4	-8.901e-6
-0.558	-1.007e-4	-9.102e-6
-0.557	-1.005e-4	-9.303e-6
-0.556	-1.002e-4	-9.503e-6
-0.555	-1.000e-4	-9.703e-6
-0.554	-9.982e-5	-9.903e-6
-0.553	-9.960e-5	-1.010e-5
-0.552	-9.938e-5	-1.030e-5
-0.551	-9.917e-5	-1.050e-5
-0.550	-9.897e-5	-1.070e-5
-0.549	-9.877e-5	-1.089e-5
-0.548	-9.857e-5	-1.109e-5
-0.547	-9.838e-5	-1.129e-5
-0.546	-9.818e-5	-1.148e-5
-0.545	-9.798e-5	-1.168e-5
-0.544	-9.778e-5	-1.188e-5
-0.543	-9.758e-5	-1.207e-5
-0.542	-9.737e-5	-1.227e-5
-0.541	-9.717e-5	-1.246e-5
-0.540	-9.697e-5	-1.265e-5
-0.539	-9.678e-5	-1.285e-5
-0.538	-9.659e-5	-1.304e-5
-0.537	-9.641e-5	-1.323e-5
-0.536	-9.622e-5	-1.343e-5
-0.535	-9.603e-5	-1.362e-5
-0.534	-9.584e-5	-1.381e-5
-0.533	-9.564e-5	-1.400e-5
-0.532	-9.545e-5	-1.419e-5
-0.531	-9.525e-5	-1.438e-5
-0.530	-9.506e-5	-1.457e-5
-0.529	-9.487e-5	-1.476e-5
-0.528	-9.468e-5	-1.495e-5
-0.527	-9.449e-5	-1.514e-5
-0.526	-9.431e-5	-1.533e-5
-0.525	-9.413e-5	-1.552e-5
-0.524	-9.394e-5	-1.571e-5
-0.523	-9.376e-5	-1.589e-5
-0.522	-9.357e-5	-1.608e-5
-0.521	-9.338e-5	-1.627e-5
-0.520	-9.319e-5	-1.645e-5
-0.519	-9.300e-5	-1.664e-5
-0.518	-9.282e-5	-1.683e-5
-0.517	-9.264e-5	-1.701e-5
-0.516	-9.246e-5	-1.720e-5
-0.515	-9.228e-5	-1.738e-5
-0.514	-9.209e-5	-1.756e-5
-0.513	-9.189e-5	-1.775e-5
-0.512	-9.170e-5	-1.793e-5
-0.511	-9.151e-5	-1.811e-5
-0.510	-9.133e-5	-1.830e-5
-0.509	-9.115e-5	-1.848e-5
-0.508	-9.097e-5	-1.866e-5
-0.507	-9.078e-5	-1.884e-5
-0.506	-9.060e-5	-1.902e-5
-0.505	-9.041e-5	-1.921e-5
-0.504	-9.022e-5	-1.939e-5
-0.503	-9.004e-5	-1.957e-5
-0.502	-8.985e-5	-1.975e-5
-0.501	-8.966e-5	-1.992e-5
-0.500	-8.946e-5	-2.010e-5
-0.499	-8.927e-5	-2.028e-5
-0.498	-8.908e-5	-2.046e-5
-0.497	-8.889e-5	-2.064e-5
-0.496	-8.870e-5	-2.082e-5
-0.495	-8.850e-5	-2.099e-5
-0.494	-8.830e-5	-2.117e-5
-0.493	-8.810e-5	-2.135e-5
-0.492	-8.789e-5	-2.152e-5
-0.491	-8.768e-5	-2.170e-5
-0.490	-8.747e-5	-2.187e-5
-0.489	-8.726e-5	-2.205e-5
-0.488	-8.706e-5	-2.222e-5
-0.487	-8.685e-5	-2.239e-5
-0.486	-8.664e-5	-2.257e-5
-0.485	-8.644e-5	-2.274e-5
-0.484	-8.622e-5	-2.291e-5
-0.483	-8.600e-5	-2.308e-5
-0.482	-8.577e-5	-2.326e-5
-0.481	-8.555e-5	-2.343e-5
-0.480	-8.532e-5	-2.360e-5
-0.479	-8.509e-5	-2.377e-5
-0.478	-8.486e-5	-2.394e-5
-0.477	-8.463e-5	-2.411e-5
-0.476	-8.440e-5	-2.428e-5
-0.475	-8.416e-5	-2.444e-5
-0.474	-8.392e-5	-2.461e-5
-0.473	-8.367e-5	-2.478e-5
-0.472	-8.342e-5	-2.495e-5
-0.471	-8.316e-5	-2.511e-5
-0.470	-8.289e-5	-2.528e-5
-0.469	-8.262e-5	-2.544e-5
-0.468	-8.235e-5	-2.561e-5
-0.467	-8.207e-5	-2.577e-5
-0.466	-8.180e-5	-2.594e-5
-0.465	-8.152e-5	-2.610e-5
-0.464	-8.123e-5	-2.626e-5
-0.463	-8.093e-5	-2.642e-5
-0.462	-8.063e-5	-2.658e-5
-0.461	-8.031e-5	-2.674e-5
-0.460	-7.999e-5	-2.690e-5
-0.459	-7.967e-5	-2.706e-5
-0.458	-7.934e-5	-2.722e-5
-0.457	-7.901e-5	-2.738e-5
-0.456	-7.867e-5	-2.754e-5
-0.455	-7.832e-5	-2.769e-5
-0.454	-7.796e-5	-2.785e-5
-0.453	-7.760e-5	-2.801e-5
-0.452	-7.722e-5	-2.816e-5
-0.451	-7.684e-5	-2.831e-5
-0.450	-7.644e-5	-2.847e-5
-0.449	-7.603e-5	-2.862e-5
-0.448	-7.562e-5	-2.877e-5
-0.447	-7.520e-5	-2.892e-5
-0.446	-7.477e-5	-2.907e-5
-0.445	-7.434e-5	-2.922e-5
-0.444	-7.389e-5	-2.937e-5
-0.443	-7.343e-5	-2.951e-5
-0.442	-7.294e-5	-2.966e-5
-0.441	-7.245e-5	-2.980e-5
-0.440	-7.194e-5	-2.995e-5
-0.439	-7.141e-5	-3.009e-5
-0.438	-7.087e-5	-3.023e-5
-0.437	-7.032e-5	-3.037e-5
-0.436	-6.976e-5	-3.051e-5
-0.435	-6.919e-5	-3.065e-5
-0.434	-6.860e-5	-3.079e-5
-0.433	-6.799e-5	-3.092e-5
-0.432	-6.736e-5	-3.106e-5
-0.431	-6.671e-5	-3.119e-5
-0.430	-6.604e-5	-3.132e-5
-0.429	-6.535e-5	-3.146e-5
-0.428	-6.465e-5	-3.158e-5
-0.427	-6.393e-5	-3.171e-5
-0.426	-6.320e-5	-3.184e-5
-0.425	-6.244e-5	-3.196e-5
-0.424	-6.165e-5	-3.209e-5
-0.423	-6.084e-5	-3.221e-5
-0.422	-6.001e-5	-3.233e-5
-0.421	-5.915e-5	-3.245e-5
-0.420	-5.827e-5	-3.256e-5
-0.419	-5.736e-5	-3.268e-5
-0.418	-5.642e-5	-3.279e-5
-0.417	-5.546e-5	-3.290e-5
-0.416	-5.447e-5	-3.301e-5
-0.415	-5.346e-5	-3.312e-5
-0.414	-5.242e-5	-3.322e-5
-0.413	-5.135e-5	-3.333e-5
-0.412	-5.026e-5	-3.343e-5
-0.411	-4.913e-5	-3.352e-5
-0.410	-4.795e-5	-3.362e-5
-0.409	-4.673e-5	-3.371e-5
-0.408	-4.548e-5	-3.380e-5
-0.407	-4.421e-5	-3.389e-5
-0.406	-4.291e-5	-3.398e-5
-0.405	-4.158e-5	-3.406e-5
-0.404	-4.021e-5	-3.414e-5
-0.403	-3.881e-5	-3.422e-5
-0.402	-3.737e-5	-3.429e-5
-0.401	-3.589e-5	-3.437e-5
-0.400	-3.436e-5	-3.444e-5
-0.399	-3.278e-5	-3.450e-5
-0.398	-3.116e-5	-3.456e-5
-0.397	-2.951e-5	-3.462e-5
-0.396	-2.784e-5	-3.468e-5
-0.395	-2.613e-5	-3.473e-5
-0.394	-2.439e-5	-3.478e-5
-0.393	-2.260e-5	-3.482e-5
-0.392	-2.076e-5	-3.487e-5
-0.391	-1.887e-5	-3.490e-5
-0.390	-1.693e-5	-3.494e-5
-0.389	-1.495e-5	-3.497e-5
-0.388	-1.293e-5	-3.499e-5
-0.387	-1.089e-5	-3.501e-5
-0.386	-8.815e-6	-3.503e-5
-0.385	-6.700e-6	-3.505e-5
-0.384	-4.543e-6	-3.505e-5
-0.383	-2.352e-6	-3.506e-5
-0.382	-1.245e-7	-3.506e-5
-0.381	2.148e-6	-3.506e-5
-0.380	4.466e-6	-3.505e-5
-0.379	6.841e-6	-3.503e-5
-0.378	9.248e-6	-3.501e-5
-0.377	1.166e-5	-3.499e-5
-0.376	1.409e-5	-3.496e-5
-0.375	1.653e-5	-3.493e-5
-0.374	1.899e-5	-3.489e-5
-0.373	2.149e-5	-3.485e-5
-0.372	2.402e-5	-3.480e-5
-0.371	2.657e-5	-3.475e-5
-0.370	2.916e-5	-3.469e-5
-0.369	3.178e-5	-3.463e-5
-0.368	3.442e-5	-3.456e-5
-0.367	3.707e-5	-3.448e-5
-0.366	3.971e-5	-3.440e-5
-0.365	4.235e-5	-3.432e-5
-0.364	4.497e-5	-3.423e-5
-0.363	4.760e-5	-3.413e-5
-0.362	5.021e-5	-3.403e-5
-0.361	5.284e-5	-3.393e-5
-0.360	5.548e-5	-3.382e-5
-0.359	5.812e-5	-3.370e-5
-0.358	6.075e-5	-3.358e-5
-0.357	6.336e-5	-3.345e-5
-0.356	6.592e-5	-3.332e-5
-0.355	6.845e-5	-3.318e-5
-0.354	7.096e-5	-3.304e-5
-0.353	7.345e-5	-3.289e-5
-0.352	7.590e-5	-3.274e-5
-0.351	7.832e-5	-3.259e-5
-0.350	8.072e-5	-3.242e-5
-0.349	8.308e-5	-3.226e-5
-0.348	8.541e-5	-3.209e-5
-0.347	8.768e-5	-3.191e-5
-0.346	8.989e-5	-3.173e-5
-0.345	9.205e-5	-3.155e-5
-0.344	9.415e-5	-3.136e-5
-0.343	9.619e-5	-3.117e-5
-0.342	9.817e-5	-3.097e-5
-0.341	1.001e-4	-3.077e-5
-0.340	1.020e-4	-3.057e-5
-0.339	1.039e-4	-3.036e-5
-0.338	1.056e-4	-3.015e-5
-0.337	1.073e-4	-2.993e-5
-0.336	1.090e-4	-2.972e-5
-0.335	1.105e-4	-2.949e-5
-0.334	1.120e-4	-2.927e-5
-0.333	1.134e-4	-2.904e-5
-0.332	1.148e-4	-2.881e-5
-0.331	1.161e-4	-2.858e-5
-0.330	1.173e-4	-2.835e-5
-0.329	1.185e-4	-2.811e-5
-0.328	1.197e-4	-2.787e-5
-0.327	1.207e-4	-2.763e-5
-0.326	1.217e-4	-2.739e-5
-0.325	1.226e-4	-2.714e-5
-0.324	1.234e-4	-2.689e-5
-0.323	1.241e-4	-2.665e-5
-0.322	1.248e-4	-2.640e-5
-0.321	1.255e-4	-2.615e-5
-0.320	1.261e-4	-2.589e-5
-0.319	1.267e-4	-2.564e-5
-0.318	1.272e-4	-2.539e-5
-0.317	1.276e-4	-2.513e-5
-0.316	1.279e-4	-2.487e-5
-0.315	1.282e-4	-2.462e-5
-0.314	1.285e-4	-2.436e-5
-0.313	1.287e-4	-2.410e-5
-0.312	1.289e-4	-2.385e-5
-0.311	1.290e-4	-2.359e-5
-0.310	1.291e-4	-2.333e-5
-0.309	1.292e-4	-2.307e-5
-0.308	1.292e-4	-2.281e-5
-0.307	1.292e-4	-2.255e-5
-0.306	1.291e-4	-2.230e-5
-0.305	1.290e-4	-2.204e-5
-0.304	1.288e-4	-2.178e-5
-0.303	1.286e-4	-2.152e-5
-0.302	1.284e-4	-2.127e-5
-0.301	1.282e-4	-2.101e-5
-0.300	1.280e-4	-2.075e-5
-0.299	1.277e-4	-2.050e-5
-0.298	1.274e-4	-2.024e-5
-0.297	1.271e-4	-1.999e-5
-0.296	1.268e-4	-1.974e-5
-0.295	1.264e-4	-1.948e-5
-0.294	1.260e-4	-1.923e-5
-0.293	1.256e-4	-1.898e-5
-0.292	1.252e-4	-1.873e-5
-0.291	1.248e-4	-1.848e-5
-0.290	1.244e-4	-1.823e-5
-0.289	1.240e-4	-1.798e-5
-0.288	1.236e-4	-1.774e-5
-0.287	1.231e-4	-1.749e-5
-0.286	1.227e-4	-1.724e-5
-0.285	1.222e-4	-1.700e-5
-0.284	1.217e-4	-1.676e-5
-0.283	1.212e-4	-1.651e-5
-0.282	1.208e-4	-1.627e-5
-0.281	1.203e-4	-1.603e-5
-0.280	1.198e-4	-1.579e-5
-0.279	1.194e-4	-1.555e-5
-0.278	1.189e-4	-1.532e-5
-0.277	1.184e-4	-1.508e-5
-0.276	1.179e-4	-1.484e-5
-0.275	1.175e-4	-1.461e-5
-0.274	1.170e-4	-1.437e-5
-0.273	1.165e-4	-1.414e-5
-0.272	1.161e-4	-1.391e-5
-0.271	1.156e-4	-1.368e-5
-0.270	1.152e-4	-1.345e-5
-0.269	1.147e-4	-1.322e-5
-0.268	1.143e-4	-1.299e-5
-0.267	1.139e-4	-1.276e-5
-0.266	1.134e-4	-1.253e-5
-0.265	1.130e-4	-1.231e-5
-0.264	1.126e-4	-1.208e-5
-0.263	1.121e-4	-1.186e-5
-0.262	1.117e-4	-1.164e-5
-0.261	1.113e-4	-1.141e-5
-0.260	1.109e-4	-1.119e-5
-0.259	1.105e-4	-1.097e-5
-0.258	1.102e-4	-1.075e-5
-0.257	1.098e-4	-1.053e-5
-0.256	1.094e-4	-1.031e-5
-0.255	1.090e-4	-1.009e-5
-0.254	1.086e-4	-9.876e-6
-0.253	1.083e-4	-9.660e-6
-0.252	1.079e-4	-9.444e-6
-0.251	1.076e-4	-9.229e-6
-0.250	1.073e-4	-9.014e-6
-0.249	1.069e-4	-8.800e-6
-0.248	1.066e-4	-8.587e-6
-0.247	1.063e-4	-8.375e-6
-0.246	1.059e-4	-8.163e-6
-0.245	1.056e-4	-7.952e-6
-0.244	1.053e-4	-7.741e-6
-0.243	1.050e-4	-7.531e-6
-0.242	1.047e-4	-7.322e-6
-0.241	1.044e-4	-7.113e-6
-0.240	1.041e-4	-6.904e-6
-0.239	1.038e-4	-6.697e-6
-0.238	1.036e-4	-6.490e-6
-0.237	1.033e-4	-6.283e-6
-0.236	1.030e-4	-6.077e-6
-0.235	1.027e-4	-5.872e-6
-0.234	1.025e-4	-5.667e-6
-0.233	1.022e-4	-5.462e-6
-0.232	1.019e-4	-5.258e-6
-0.231	1.017e-4	-5.055e-6
-0.230	1.014e-4	-4.852e-6
-0.229	1.012e-4	-4.650e-6
-0.228	1.009e-4	-4.448e-6
-0.227	1.006e-4	-4.247e-6
-0.226	1.004e-4	-4.046e-6
-0.225	1.001e-4	-3.846e-6
-0.224	9.988e-5	-3.646e-6
-0.223	9.964e-5	-3.447e-6
-0.222	9.939e-5	-3.248e-6
-0.221	9.914e-5	-3.050e-6
-0.220	9.889e-5	-2.852e-6
-0.219	9.864e-5	-2.655e-6
-0.218	9.840e-5	-2.458e-6
-0.217	9.815e-5	-2.262e-6
-0.216	9.791e-5	-2.066e-6
-0.215	9.766e-5	-1.870e-6
-0.214	9.741e-5	-1.676e-6
-0.213	9.716e-5	-1.481e-6
-0.212	9.690e-5	-1.287e-6
-0.211	9.665e-5	-1.094e-6
-0.210	9.640e-5	-9.014e-7
-0.209	9.614e-5	-7.091e-7
-0.208	9.588e-5	-5.173e-7
-0.207	9.562e-5	-3.261e-7
-0.206	9.536e-5	-1.353e-7
-0.205	9.510e-5	5.485e-8
-0.204	9.483e-5	2.445e-7
-0.203	9.456e-5	4.336e-7
-0.202	9.430e-5	6.222e-7
-0.201	9.403e-5	8.103e-7
-0.200	9.375e-5	9.978e-7
-0.199	9.348e-5	1.185e-6
-0.198	9.320e-5	1.371e-6
-0.197	9.292e-5	1.557e-6
-0.196	9.265e-5	1.742e-6
-0.195	9.237e-5	1.927e-6
-0.194	9.209e-5	2.111e-6
-0.193	9.181e-5	2.295e-6
-0.192	9.152e-5	2.478e-6
-0.191	9.123e-5	2.660e-6
-0.190	9.094e-5	2.842e-6
-0.189	9.065e-5	3.023e-6
-0.188	9.036e-5	3.204e-6
-0.187	9.006e-5	3.384e-6
-0.186	8.976e-5	3.564e-6
-0.185	8.946e-5	3.743e-6
-0.184	8.917e-5	3.921e-6
-0.183	8.887e-5	4.099e-6
-0.182	8.857e-5	4.276e-6
-0.181	8.827e-5	4.453e-6
-0.180	8.797e-5	4.628e-6
-0.179	8.766e-5	4.804e-6
-0.178	8.735e-5	4.979e-6
-0.177	8.704e-5	5.153e-6
-0.176	8.672e-5	5.326e-6
-0.175	8.641e-5	5.499e-6
-0.174	8.609e-5	5.671e-6
-0.173	8.578e-5	5.843e-6
-0.172	8.546e-5	6.014e-6
-0.171	8.515e-5	6.184e-6
-0.170	8.483e-5	6.353e-6
-0.169	8.452e-5	6.523e-6
-0.168	8.421e-5	6.691e-6
-0.167	8.389e-5	6.859e-6
-0.166	8.356e-5	7.026e-6
-0.165	8.323e-5	7.192e-6
-0.164	8.291e-5	7.358e-6
-0.163	8.259e-5	7.523e-6
-0.162	8.228e-5	7.688e-6
-0.161	8.197e-5	7.852e-6
-0.160	8.167e-5	8.015e-6
-0.159	8.135e-5	8.178e-6
-0.158	8.102e-5	8.340e-6
-0.157	8.069e-5	8.501e-6
-0.156	8.037e-5	8.662e-6
-0.155	8.004e-5	8.822e-6
-0.154	7.972e-5	8.982e-6
-0.153	7.940e-5	9.140e-6
-0.152	7.909e-5	9.299e-6
-0.151	7.878e-5	9.456e-6
-0.150	7.846e-5	9.613e-6
-0.149	7.815e-5	9.769e-6
-0.148	7.783e-5	9.925e-6
-0.147	7.752e-5	1.008e-5
-0.146	7.721e-5	1.023e-5
-0.145	7.690e-5	1.039e-5
-0.144	7.659e-5	1.054e-5
-0.143	7.628e-5	1.069e-5
-0.142	7.598e-5	1.085e-5
-0.141	7.568e-5	1.100e-5
-0.140	7.538e-5	1.115e-5
-0.139	7.509e-5	1.130e-5
-0.138	7.479e-5	1.145e-5
-0.137	7.449e-5	1.160e-5
-0.136	7.419e-5	1.175e-5
-0.135	7.389e-5	1.189e-5
-0.134	7.361e-5	1.204e-5
-0.133	7.333e-5	1.219e-5
-0.132	7.305e-5	1.233e-5
-0.131	7.277e-5	1.248e-5
-0.130	7.249e-5	1.262e-5
-0.129	7.222e-5	1.277e-5
-0.128	7.196e-5	1.291e-5
-0.127	7.169e-5	1.306e-5
-0.126	7.143e-5	1.320e-5
-0.125	7.116e-5	1.334e-5
-0.124	7.090e-5	1.348e-5
-0.123	7.064e-5	1.362e-5
-0.122	7.039e-5	1.376e-5
-0.121	7.015e-5	1.390e-5
-0.120	6.991e-5	1.404e-5
-0.119	6.967e-5	1.418e-5
-0.118	6.942e-5	1.432e-5
-0.117	6.918e-5	1.446e-5
-0.116	6.895e-5	1.460e-5
-0.115	6.872e-5	1.474e-5
-0.114	6.849e-5	1.487e-5
-0.113	6.827e-5	1.501e-5
-0.112	6.804e-5	1.515e-5
-0.111	6.783e-5	1.528e-5
-0.110	6.761e-5	1.542e-5
-0.109	6.740e-5	1.555e-5
-0.108	6.718e-5	1.569e-5
-0.107	6.697e-5	1.582e-5
-0.106	6.675e-5	1.595e-5
-0.105	6.653e-5	1.609e-5
-0.104	6.632e-5	1.622e-5
-0.103	6.611e-5	1.635e-5
-0.102	6.591e-5	1.648e-5
-0.101	6.570e-5	1.661e-5
-0.100	6.549e-5	1.675e-5
-0.099	6.528e-5	1.688e-5
-0.098	6.507e-5	1.701e-5
-0.097	6.485e-5	1.714e-5
-0.096	6.464e-5	1.727e-5
-0.095	6.442e-5	1.739e-5
-0.094	6.421e-5	1.752e-5
-0.093	6.399e-5	1.765e-5
-0.092	6.378e-5	1.778e-5
-0.091	6.357e-5	1.791e-5
-0.090	6.335e-5	1.803e-5
-0.089	6.313e-5	1.816e-5
-0.088	6.290e-5	1.828e-5
-0.087	6.267e-5	1.841e-5
-0.086	6.244e-5	1.853e-5
-0.085	6.221e-5	1.866e-5
-0.084	6.198e-5	1.878e-5
-0.083	6.176e-5	1.891e-5
-0.082	6.153e-5	1.903e-5
-0.081	6.131e-5	1.915e-5
-0.080	6.108e-5	1.927e-5
-0.079	6.085e-5	1.940e-5
-0.078	6.062e-5	1.952e-5
-0.077	6.039e-5	1.964e-5
-0.076	6.015e-5	1.976e-5
-0.075	5.991e-5	1.988e-5
-0.074	5.968e-5	2.000e-5
-0.073	5.944e-5	2.012e-5
-0.072	5.922e-5	2.023e-5
-0.071	5.899e-5	2.035e-5
-0.070	5.876e-5	2.047e-5
-0.069	5.854e-5	2.059e-5
-0.068	5.831e-5	2.070e-5
-0.067	5.807e-5	2.082e-5
-0.066	5.784e-5	2.094e-5
-0.065	5.762e-5	2.105e-5
-0.064	5.739e-5	2.117e-5
-0.063	5.717e-5	2.128e-5
-0.062	5.695e-5	2.139e-5
-0.061	5.673e-5	2.151e-5
-0.060	5.651e-5	2.162e-5
-0.059	5.629e-5	2.173e-5
-0.058	5.608e-5	2.184e-5
-0.057	5.585e-5	2.196e-5
-0.056	5.563e-5	2.207e-5
-0.055	5.540e-5	2.218e-5
-0.054	5.519e-5	2.229e-5
-0.053	5.498e-5	2.240e-5
-0.052	5.478e-5	2.251e-5
-0.051	5.457e-5	2.262e-5
-0.050	5.437e-5	2.273e-5
-0.049	5.416e-5	2.283e-5
-0.048	5.395e-5	2.294e-5
-0.047	5.374e-5	2.305e-5
-0.046	5.354e-5	2.316e-5
-0.045	5.333e-5	2.326e-5
-0.044	5.313e-5	2.337e-5
-0.043	5.294e-5	2.348e-5
-0.042	5.275e-5	2.358e-5
-0.041	5.255e-5	2.369e-5
-0.040	5.236e-5	2.379e-5
-0.039	5.217e-5	2.390e-5
-0.038	5.199e-5	2.400e-5
-0.037	5.180e-5	2.410e-5
-0.036	5.161e-5	2.421e-5
-0.035	5.141e-5	2.431e-5
-0.034	5.122e-5	2.441e-5
-0.033	5.104e-5	2.451e-5
-0.032	5.087e-5	2.462e-5
-0.031	5.070e-5	2.472e-5
-0.030	5.053e-5	2.482e-5
-0.029	5.036e-5	2.492e-5
-0.028	5.017e-5	2.502e-5
-0.027	4.999e-5	2.512e-5
-0.026	4.981e-5	2.522e-5
-0.025	4.964e-5	2.532e-5
-0.024	4.947e-5	2.542e-5
-0.023	4.931e-5	2.552e-5
-0.022	4.914e-5	2.561e-5
-0.021	4.897e-5	2.571e-5
-0.020	4.881e-5	2.581e-5
-0.019	4.865e-5	2.591e-5
-0.018	4.848e-5	2.600e-5
-0.017	4.832e-5	2.610e-5
-0.016	4.815e-5	2.620e-5
-0.015	4.799e-5	2.629e-5
-0.014	4.784e-5	2.639e-5
-0.013	4.768e-5	2.648e-5
-0.012	4.753e-5	2.658e-5
-0.011	4.738e-5	2.667e-5
-0.010	4.722e-5	2.677e-5
-0.009	4.707e-5	2.686e-5
-0.008	4.691e-5	2.696e-5
-0.007	4.676e-5	2.705e-5
-0.006	4.661e-5	2.714e-5
-0.005	4.646e-5	2.724e-5
-0.004	4.632e-5	2.733e-5
-0.003	4.617e-5	2.742e-5
-0.002	4.602e-5	2.751e-5
-0.001	4.587e-5	2.760e-5
-0.000	4.491e-5	8.982e-8
-0.001	4.348e-5	1.768e-7
-0.002	4.232e-5	2.614e-7
-0.003	4.143e-5	3.443e-7
-0.004	4.089e-5	4.261e-7
-0.005	4.053e-5	5.071e-7
-0.006	4.024e-5	5.876e-7
-0.007	3.992e-5	6.674e-7
-0.008	3.962e-5	7.467e-7
-0.009	3.933e-5	8.254e-7
-0.010	3.906e-5	9.035e-7
-0.011	3.880e-5	9.811e-7
-0.012	3.854e-5	1.058e-6
-0.013	3.830e-5	1.135e-6
-0.014	3.807e-5	1.211e-6
-0.015	3.784e-5	1.287e-6
-0.016	3.762e-5	1.362e-6
-0.017	3.741e-5	1.437e-6
-0.018	3.720e-5	1.511e-6
-0.019	3.699e-5	1.585e-6
-0.020	3.679e-5	1.659e-6
-0.021	3.660e-5	1.732e-6
-0.022	3.640e-5	1.805e-6
-0.023	3.621e-5	1.877e-6
-0.024	3.601e-5	1.949e-6
-0.025	3.582e-5	2.021e-6
-0.026	3.564e-5	2.092e-6
-0.027	3.546e-5	2.163e-6
-0.028	3.529e-5	2.233e-6
-0.029	3.513e-5	2.304e-6
-0.030	3.496e-5	2.374e-6
-0.031	3.479e-5	2.443e-6
-0.032	3.461e-5	2.512e-6
-0.033	3.444e-5	2.581e-6
-0.034	3.426e-5	2.650e-6
-0.035	3.410e-5	2.718e-6
-0.036	3.394e-5	2.786e-6
-0.037	3.378e-5	2.853e-6
-0.038	3.363e-5	2.921e-6
-0.039	3.347e-5	2.988e-6
-0.040	3.332e-5	3.054e-6
-0.041	3.316e-5	3.121e-6
-0.042	3.299e-5	3.187e-6
-0.043	3.283e-5	3.252e-6
-0.044	3.267e-5	3.318e-6
-0.045	3.252e-5	3.383e-6
-0.046	3.237e-5	3.447e-6
-0.047	3.222e-5	3.512e-6
-0.048	3.207e-5	3.576e-6
-0.049	3.193e-5	3.640e-6
-0.050	3.178e-5	3.703e-6
-0.051	3.163e-5	3.767e-6
-0.052	3.148e-5	3.830e-6
-0.053	3.132e-5	3.892e-6
-0.054	3.117e-5	3.955e-6
-0.055	3.101e-5	4.017e-6
-0.056	3.086e-5	4.078e-6
-0.057	3.072e-5	4.140e-6
-0.058	3.058e-5	4.201e-6
-0.059	3.044e-5	4.262e-6
-0.060	3.030e-5	4.322e-6
-0.061	3.015e-5	4.383e-6
-0.062	3.000e-5	4.443e-6
-0.063	2.985e-5	4.502e-6
-0.064	2.969e-5	4.562e-6
-0.065	2.954e-5	4.621e-6
-0.066	2.939e-5	4.680e-6
-0.067	2.925e-5	4.738e-6
-0.068	2.911e-5	4.796e-6
-0.069	2.896e-5	4.854e-6
-0.070	2.882e-5	4.912e-6
-0.071	2.867e-5	4.969e-6
-0.072	2.852e-5	5.026e-6
-0.073	2.837e-5	5.083e-6
-0.074	2.822e-5	5.139e-6
-0.075	2.806e-5	5.196e-6
-0.076	2.791e-5	5.251e-6
-0.077	2.775e-5	5.307e-6
-0.078	2.760e-5	5.362e-6
-0.079	2.745e-5	5.417e-6
-0.080	2.729e-5	5.472e-6
-0.081	2.714e-5	5.526e-6
-0.082	2.697e-5	5.580e-6
-0.083	2.681e-5	5.633e-6
-0.084	2.665e-5	5.687e-6
-0.085	2.649e-5	5.740e-6
-0.086	2.634e-5	5.792e-6
-0.087	2.618e-5	5.845e-6
-0.088	2.603e-5	5.897e-6
-0.089	2.587e-5	5.949e-6
-0.090	2.571e-5	6.000e-6
-0.091	2.555e-5	6.051e-6
-0.092	2.539e-5	6.102e-6
-0.093	2.522e-5	6.152e-6
-0.094	2.506e-5	6.202e-6
-0.095	2.490e-5	6.252e-6
-0.096	2.474e-5	6.302e-6
-0.097	2.458e-5	6.351e-6
-0.098	2.443e-5	6.400e-6
-0.099	2.427e-5	6.448e-6
-0.100	2.411e-5	6.496e-6
-0.101	2.396e-5	6.544e-6
-0.102	2.380e-5	6.592e-6
-0.103	2.365e-5	6.639e-6
-0.104	2.350e-5	6.686e-6
-0.105	2.335e-5	6.733e-6
-0.106	2.320e-5	6.779e-6
-0.107	2.306e-5	6.825e-6
-0.108	2.292e-5	6.871e-6
-0.109	2.278e-5	6.917e-6
-0.110	2.265e-5	6.962e-6
-0.111	2.252e-5	7.007e-6
-0.112	2.239e-5	7.052e-6
-0.113	2.226e-5	7.097e-6
-0.114	2.213e-5	7.141e-6
-0.115	2.201e-5	7.185e-6
-0.116	2.190e-5	7.229e-6
-0.117	2.179e-5	7.272e-6
-0.118	2.167e-5	7.316e-6
-0.119	2.156e-5	7.359e-6
-0.120	2.146e-5	7.402e-6
-0.121	2.135e-5	7.444e-6
-0.122	2.124e-5	7.487e-6
-0.123	2.114e-5	7.529e-6
-0.124	2.104e-5	7.571e-6
-0.125	2.094e-5	7.613e-6
-0.126	2.084e-5	7.655e-6
-0.127	2.074e-5	7.696e-6
-0.128	2.065e-5	7.737e-6
-0.129	2.056e-5	7.779e-6
-0.130	2.047e-5	7.819e-6
-0.131	2.038e-5	7.860e-6
-0.132	2.029e-5	7.901e-6
-0.133	2.020e-5	7.941e-6
-0.134	2.010e-5	7.981e-6
-0.135	2.001e-5	8.021e-6
-0.136	1.992e-5	8.061e-6
-0.137	1.984e-5	8.101e-6
-0.138	1.975e-5	8.140e-6
-0.139	1.966e-5	8.180e-6
-0.140	1.957e-5	8.219e-6
-0.141	1.949e-5	8.258e-6
-0.142	1.940e-5	8.297e-6
-0.143	1.931e-5	8.335e-6
-0.144	1.922e-5	8.374e-6
-0.145	1.913e-5	8.412e-6
-0.146	1.904e-5	8.450e-6
-0.147	1.894e-5	8.488e-6
-0.148	1.886e-5	8.526e-6
-0.149	1.877e-5	8.563e-6
-0.150	1.868e-5	8.601e-6
-0.151	1.859e-5	8.638e-6
-0.152	1.849e-5	8.675e-6
-0.153	1.838e-5	8.712e-6
-0.154	1.827e-5	8.748e-6
-0.155	1.817e-5	8.784e-6
-0.156	1.807e-5	8.821e-6
-0.157	1.797e-5	8.856e-6
-0.158	1.788e-5	8.892e-6
-0.159	1.778e-5	8.928e-6
-0.160	1.768e-5	8.963e-6
-0.161	1.757e-5	8.998e-6
-0.162	1.746e-5	9.033e-6
-0.163	1.735e-5	9.068e-6
-0.164	1.724e-5	9.102e-6
-0.165	1.714e-5	9.137e-6
-0.166	1.703e-5	9.171e-6
-0.167	1.692e-5	9.205e-6
-0.168	1.680e-5	9.238e-6
-0.169	1.668e-5	9.272e-6
-0.170	1.657e-5	9.305e-6
-0.171	1.645e-5	9.338e-6
-0.172	1.633e-5	9.370e-6
-0.173	1.621e-5	9.403e-6
-0.174	1.608e-5	9.435e-6
-0.175	1.595e-5	9.467e-6
-0.176	1.582e-5	9.498e-6
-0.177	1.570e-5	9.530e-6
-0.178	1.558e-5	9.561e-6
-0.179	1.545e-5	9.592e-6
-0.180	1.533e-5	9.622e-6
-0.181	1.519e-5	9.653e-6
-0.182	1.505e-5	9.683e-6
-0.183	1.491e-5	9.713e-6
-0.184	1.477e-5	9.742e-6
-0.185	1.463e-5	9.772e-6
-0.186	1.449e-5	9.801e-6
-0.187	1.434e-5	9.829e-6
-0.188	1.420e-5	9.858e-6
-0.189	1.405e-5	9.886e-6
-0.190	1.391e-5	9.914e-6
-0.191	1.376e-5	9.941e-6
-0.192	1.361e-5	9.968e-6
-0.193	1.345e-5	9.995e-6
-0.194	1.329e-5	1.002e-5
-0.195	1.313e-5	1.005e-5
-0.196	1.297e-5	1.007e-5
-0.197	1.280e-5	1.010e-5
-0.198	1.264e-5	1.012e-5
-0.199	1.248e-5	1.015e-5
-0.200	1.231e-5	1.017e-5
-0.201	1.214e-5	1.020e-5
-0.202	1.196e-5	1.022e-5
-0.203	1.178e-5	1.025e-5
-0.204	1.160e-5	1.027e-5
-0.205	1.142e-5	1.029e-5
-0.206	1.124e-5	1.031e-5
-0.207	1.106e-5	1.034e-5
-0.208	1.087e-5	1.036e-5
-0.209	1.068e-5	1.038e-5
-0.210	1.049e-5	1.040e-5
-0.211	1.029e-5	1.042e-5
-0.212	1.008e-5	1.044e-5
-0.213	9.880e-6	1.046e-5
-0.214	9.678e-6	1.048e-5
-0.215	9.477e-6	1.050e-5
-0.216	9.271e-6	1.052e-5
-0.217	9.058e-6	1.054e-5
-0.218	8.839e-6	1.055e-5
-0.219	8.617e-6	1.057e-5
-0.220	8.392e-6	1.059e-5
-0.221	8.165e-6	1.060e-5
-0.222	7.936e-6	1.062e-5
-0.223	7.701e-6	1.064e-5
-0.224	7.462e-6	1.065e-5
-0.225	7.220e-6	1.067e-5
-0.226	6.974e-6	1.068e-5
-0.227	6.726e-6	1.069e-5
-0.228	6.477e-6	1.071e-5
-0.229	6.227e-6	1.072e-5
-0.230	5.979e-6	1.073e-5
-0.231	5.726e-6	1.074e-5
-0.232	5.468e-6	1.075e-5
-0.233	5.201e-6	1.076e-5
-0.234	4.927e-6	1.077e-5
-0.235	4.645e-6	1.078e-5
-0.236	4.364e-6	1.079e-5
-0.237	4.082e-6	1.080e-5
-0.238	3.802e-6	1.081e-5
-0.239	3.521e-6	1.081e-5
-0.240	3.233e-6	1.082e-5
-0.241	2.933e-6	1.083e-5
-0.242	2.621e-6	1.083e-5
-0.243	2.300e-6	1.084e-5
-0.244	1.978e-6	1.084e-5
-0.245	1.656e-6	1.084e-5
-0.246	1.335e-6	1.085e-5
-0.247	1.007e-6	1.085e-5
-0.248	6.703e-7	1.085e-5
-0.249	3.266e-7	1.085e-5
-0.250	-2.190e-8	1.085e-5
-0.251	-3.786e-7	1.085e-5
-0.252	-7.417e-7	1.085e-5
-0.253	-1.116e-6	1.084e-5
-0.254	-1.497e-6	1.084e-5
-0.255	-1.880e-6	1.084e-5
-0.256	-2.269e-6	1.083e-5
-0.257	-2.665e-6	1.083e-5
-0.258	-3.070e-6	1.082e-5
-0.259	-3.485e-6	1.082e-5
-0.260	-3.909e-6	1.081e-5
-0.261	-4.342e-6	1.080e-5
-0.262	-4.784e-6	1.079e-5
-0.263	-5.238e-6	1.078e-5
-0.264	-5.701e-6	1.077e-5
-0.265	-6.177e-6	1.075e-5
-0.266	-6.667e-6	1.074e-5
-0.267	-7.172e-6	1.073e-5
-0.268	-7.687e-6	1.071e-5
-0.269	-8.214e-6	1.070e-5
-0.270	-8.747e-6	1.068e-5
-0.271	-9.291e-6	1.066e-5
-0.272	-9.855e-6	1.064e-5
-0.273	-1.044e-5	1.062e-5
-0.274	-1.104e-5	1.060e-5
-0.275	-1.166e-5	1.057e-5
-0.276	-1.229e-5	1.055e-5
-0.277	-1.294e-5	1.052e-5
-0.278	-1.361e-5	1.050e-5
-0.279	-1.429e-5	1.047e-5
-0.280	-1.500e-5	1.044e-5
-0.281	-1.573e-5	1.041e-5
-0.282	-1.648e-5	1.037e-5
-0.283	-1.727e-5	1.034e-5
-0.284	-1.808e-5	1.030e-5
-0.285	-1.891e-5	1.026e-5
-0.286	-1.977e-5	1.022e-5
-0.287	-2.066e-5	1.018e-5
-0.288	-2.158e-5	1.014e-5
-0.289	-2.253e-5	1.010e-5
-0.290	-2.351e-5	1.005e-5
-0.291	-2.453e-5	9.999e-6
-0.292	-2.557e-5	9.948e-6
-0.293	-2.666e-5	9.895e-6
-0.294	-2.778e-5	9.839e-6
-0.295	-2.895e-5	9.781e-6
-0.296	-3.016e-5	9.721e-6
-0.297	-3.142e-5	9.658e-6
-0.298	-3.272e-5	9.592e-6
-0.299	-3.407e-5	9.524e-6
-0.300	-3.545e-5	9.453e-6
-0.301	-3.689e-5	9.380e-6
-0.302	-3.838e-5	9.303e-6
-0.303	-3.993e-5	9.223e-6
-0.304	-4.153e-5	9.140e-6
-0.305	-4.319e-5	9.054e-6
-0.306	-4.491e-5	8.964e-6
-0.307	-4.671e-5	8.870e-6
-0.308	-4.856e-5	8.773e-6
-0.309	-5.048e-5	8.672e-6
-0.310	-5.244e-5	8.567e-6
-0.311	-5.447e-5	8.458e-6
-0.312	-5.658e-5	8.345e-6
-0.313	-5.875e-5	8.228e-6
-0.314	-6.100e-5	8.106e-6
-0.315	-6.333e-5	7.979e-6
-0.316	-6.573e-5	7.848e-6
-0.317	-6.820e-5	7.711e-6
-0.318	-7.075e-5	7.570e-6
-0.319	-7.337e-5	7.423e-6
-0.320	-7.605e-5	7.271e-6
-0.321	-7.880e-5	7.113e-6
-0.322	-8.162e-5	6.950e-6
-0.323	-8.452e-5	6.781e-6
-0.324	-8.749e-5	6.606e-6
-0.325	-9.055e-5	6.425e-6
-0.326	-9.367e-5	6.238e-6
-0.327	-9.687e-5	6.044e-6
-0.328	-1.001e-4	5.844e-6
-0.329	-1.034e-4	5.637e-6
-0.330	-1.068e-4	5.423e-6
-0.331	-1.102e-4	5.203e-6
-0.332	-1.136e-4	4.976e-6
-0.333	-1.171e-4	4.741e-6
-0.334	-1.207e-4	4.500e-6
-0.335	-1.243e-4	4.251e-6
-0.336	-1.279e-4	3.996e-6
-0.337	-1.316e-4	3.733e-6
-0.338	-1.353e-4	3.462e-6
-0.339	-1.389e-4	3.184e-6
-0.340	-1.426e-4	2.899e-6
-0.341	-1.463e-4	2.606e-6
-0.342	-1.500e-4	2.306e-6
-0.343	-1.537e-4	1.999e-6
-0.344	-1.574e-4	1.684e-6
-0.345	-1.610e-4	1.362e-6
-0.346	-1.647e-4	1.033e-6
-0.347	-1.683e-4	6.963e-7
-0.348	-1.719e-4	3.526e-7
-0.349	-1.754e-4	1.702e-9
-0.350	-1.789e-4	-3.561e-7
-0.351	-1.823e-4	-7.207e-7
-0.352	-1.857e-4	-1.092e-6
-0.353	-1.890e-4	-1.470e-6
-0.354	-1.923e-4	-1.855e-6
-0.355	-1.955e-4	-2.246e-6
-0.356	-1.986e-4	-2.643e-6
-0.357	-2.017e-4	-3.046e-6
-0.358	-2.046e-4	-3.455e-6
-0.359	-2.075e-4	-3.870e-6
-0.360	-2.103e-4	-4.291e-6
-0.361	-2.129e-4	-4.717e-6
-0.362	-2.155e-4	-5.148e-6
-0.363	-2.179e-4	-5.584e-6
-0.364	-2.203e-4	-6.024e-6
-0.365	-2.226e-4	-6.470e-6
-0.366	-2.248e-4	-6.919e-6
-0.367	-2.269e-4	-7.373e-6
-0.368	-2.289e-4	-7.831e-6
-0.369	-2.308e-4	-8.292e-6
-0.370	-2.325e-4	-8.757e-6
-0.371	-2.341e-4	-9.226e-6
-0.372	-2.356e-4	-9.697e-6
-0.373	-2.370e-4	-1.017e-5
-0.374	-2.383e-4	-1.065e-5
-0.375	-2.395e-4	-1.113e-5
-0.376	-2.406e-4	-1.161e-5
-0.377	-2.415e-4	-1.209e-5
-0.378	-2.424e-4	-1.258e-5
-0.379	-2.431e-4	-1.306e-5
-0.380	-2.437e-4	-1.355e-5
-0.381	-2.442e-4	-1.404e-5
-0.382	-2.446e-4	-1.453e-5
-0.383	-2.449e-4	-1.502e-5
-0.384	-2.452e-4	-1.551e-5
-0.385	-2.453e-4	-1.600e-5
-0.386	-2.453e-4	-1.649e-5
-0.387	-2.452e-4	-1.698e-5
-0.388	-2.451e-4	-1.747e-5
-0.389	-2.448e-4	-1.796e-5
-0.390	-2.444e-4	-1.845e-5
-0.391	-2.440e-4	-1.894e-5
-0.392	-2.435e-4	-1.942e-5
-0.393	-2.429e-4	-1.991e-5
-0.394	-2.423e-4	-2.039e-5
-0.395	-2.416e-4	-2.088e-5
-0.396	-2.408e-4	-2.136e-5
-0.397	-2.400e-4	-2.184e-5
-0.398	-2.391e-4	-2.232e-5
-0.399	-2.382e-4	-2.279e-5
-0.400	-2.371e-4	-2.327e-5
-0.401	-2.361e-4	-2.374e-5
-0.402	-2.350e-4	-2.421e-5
-0.403	-2.339e-4	-2.468e-5
-0.404	-2.327e-4	-2.514e-5
-0.405	-2.316e-4	-2.560e-5
-0.406	-2.304e-4	-2.607e-5
-0.407	-2.291e-4	-2.652e-5
-0.408	-2.279e-4	-2.698e-5
-0.409	-2.266e-4	-2.743e-5
-0.410	-2.252e-4	-2.788e-5
-0.411	-2.239e-4	-2.833e-5
-0.412	-2.225e-4	-2.878e-5
-0.413	-2.212e-4	-2.922e-5
-0.414	-2.198e-4	-2.966e-5
-0.415	-2.184e-4	-3.009e-5
-0.416	-2.171e-4	-3.053e-5
-0.417	-2.157e-4	-3.096e-5
-0.418	-2.143e-4	-3.139e-5
-0.419	-2.129e-4	-3.181e-5
-0.420	-2.115e-4	-3.224e-5
-0.421	-2.101e-4	-3.266e-5
-0.422	-2.087e-4	-3.308e-5
-0.423	-2.073e-4	-3.349e-5
-0.424	-2.060e-4	-3.390e-5
-0.425	-2.046e-4	-3.431e-5
-0.426	-2.032e-4	-3.472e-5
-0.427	-2.019e-4	-3.512e-5
-0.428	-2.005e-4	-3.552e-5
-0.429	-1.992e-4	-3.592e-5
-0.430	-1.979e-4	-3.632e-5
-0.431	-1.965e-4	-3.671e-5
-0.432	-1.952e-4	-3.710e-5
-0.433	-1.939e-4	-3.749e-5
-0.434	-1.927e-4	-3.787e-5
-0.435	-1.914e-4	-3.826e-5
-0.436	-1.901e-4	-3.864e-5
-0.437	-1.889e-4	-3.901e-5
-0.438	-1.876e-4	-3.939e-5
-0.439	-1.864e-4	-3.976e-5
-0.440	-1.852e-4	-4.013e-5
-0.441	-1.840e-4	-4.050e-5
-0.442	-1.828e-4	-4.087e-5
-0.443	-1.817e-4	-4.123e-5
-0.444	-1.805e-4	-4.159e-5
-0.445	-1.794e-4	-4.195e-5
-0.446	-1.782e-4	-4.231e-5
-0.447	-1.771e-4	-4.266e-5
-0.448	-1.760e-4	-4.301e-5
-0.449	-1.750e-4	-4.336e-5
-0.450	-1.739e-4	-4.371e-5
-0.451	-1.728e-4	-4.406e-5
-0.452	-1.718e-4	-4.440e-5
-0.453	-1.708e-4	-4.474e-5
-0.454	-1.697e-4	-4.508e-5
-0.455	-1.688e-4	-4.542e-5
-0.456	-1.678e-4	-4.575e-5
-0.457	-1.668e-4	-4.609e-5
-0.458	-1.658e-4	-4.642e-5
-0.459	-1.649e-4	-4.675e-5
-0.460	-1.639e-4	-4.708e-5
-0.461	-1.630e-4	-4.740e-5
-0.462	-1.621e-4	-4.773e-5
-0.463	-1.612e-4	-4.805e-5
-0.464	-1.603e-4	-4.837e-5
-0.465	-1.594e-4	-4.869e-5
-0.466	-1.586e-4	-4.901e-5
-0.467	-1.577e-4	-4.932e-5
-0.468	-1.569e-4	-4.963e-5
-0.469	-1.560e-4	-4.995e-5
-0.470	-1.552e-4	-5.026e-5
-0.471	-1.544e-4	-5.057e-5
-0.472	-1.536e-4	-5.087e-5
-0.473	-1.528e-4	-5.118e-5
-0.474	-1.521e-4	-5.148e-5
-0.475	-1.513e-4	-5.179e-5
-0.476	-1.505e-4	-5.209e-5
-0.477	-1.498e-4	-5.239e-5
-0.478	-1.491e-4	-5.268e-5
-0.479	-1.483e-4	-5.298e-5
-0.480	-1.476e-4	-5.328e-5
-0.481	-1.469e-4	-5.357e-5
-0.482	-1.462e-4	-5.386e-5
-0.483	-1.455e-4	-5.415e-5
-0.484	-1.448e-4	-5.444e-5
-0.485	-1.442e-4	-5.473e-5
-0.486	-1.435e-4	-5.502e-5
-0.487	-1.429e-4	-5.530e-5
-0.488	-1.422e-4	-5.559e-5
-0.489	-1.416e-4	-5.587e-5
-0.490	-1.409e-4	-5.615e-5
-0.491	-1.403e-4	-5.643e-5
-0.492	-1.397e-4	-5.671e-5
-0.493	-1.391e-4	-5.699e-5
-0.494	-1.385e-4	-5.727e-5
-0.495	-1.379e-4	-5.754e-5
-0.496	-1.373e-4	-5.782e-5
-0.497	-1.368e-4	-5.809e-5
-0.498	-1.362e-4	-5.836e-5
-0.499	-1.356e-4	-5.864e-5
-0.500	-1.351e-4	-5.891e-5
-0.501	-1.345e-4	-5.918e-5
-0.502	-1.340e-4	-5.944e-5
-0.503	-1.335e-4	-5.971e-5
-0.504	-1.329e-4	-5.998e-5
-0.505	-1.324e-4	-6.024e-5
-0.506	-1.319e-4	-6.050e-5
-0.507	-1.314e-4	-6.077e-5
-0.508	-1.309e-4	-6.103e-5
-0.509	-1.304e-4	-6.129e-5
-0.510	-1.299e-4	-6.155e-5
-0.511	-1.294e-4	-6.181e-5
-0.512	-1.289e-4	-6.207e-5
-0.513	-1.284e-4	-6.232e-5
-0.514	-1.280e-4	-6.258e-5
-0.515	-1.275e-4	-6.283e-5
-0.516	-1.271e-4	-6.309e-5
-0.517	-1.266e-4	-6.334e-5
-0.518	-1.261e-4	-6.359e-5
-0.519	-1.257e-4	-6.385e-5
-0.520	-1.252e-4	-6.410e-5
-0.521	-1.248e-4	-6.435e-5
-0.522	-1.244e-4	-6.459e-5
-0.523	-1.240e-4	-6.484e-5
-0.524	-1.235e-4	-6.509e-5
-0.525	-1.231e-4	-6.534e-5
-0.526	-1.227e-4	-6.558e-5
-0.527	-1.223e-4	-6.583e-5
-0.528	-1.219e-4	-6.607e-5
-0.529	-1.215e-4	-6.631e-5
-0.530	-1.211e-4	-6.655e-5
-0.531	-1.207e-4	-6.680e-5
-0.532	-1.204e-4	-6.704e-5
-0.533	-1.200e-4	-6.728e-5
-0.534	-1.196e-4	-6.752e-5
-0.535	-1.192e-4	-6.775e-5
-0.536	-1.189e-4	-6.799e-5
-0.537	-1.185e-4	-6.823e-5
-0.538	-1.181e-4	-6.847e-5
-0.539	-1.177e-4	-6.870e-5
-0.540	-1.174e-4	-6.894e-5
-0.541	-1.170e-4	-6.917e-5
-0.542	-1.167e-4	-6.940e-5
-0.543	-1.163e-4	-6.964e-5
-0.544	-1.160e-4	-6.987e-5
-0.545	-1.157e-4	-7.010e-5
-0.546	-1.153e-4	-7.033e-5
-0.547	-1.150e-4	-7.056e-5
-0.548	-1.146e-4	-7.079e-5
-0.549	-1.143e-4	-7.102e-5
-0.550	-1.140e-4	-7.125e-5
-0.551	-1.137e-4	-7.147e-5
-0.552	-1.134e-4	-7.170e-5
-0.553	-1.130e-4	-7.193e-5
-0.554	-1.127e-4	-7.215e-5
-0.555	-1.124e-4	-7.238e-5
-0.556	-1.121e-4	-7.260e-5
-0.557	-1.118e-4	-7.282e-5
-0.558	-1.115e-4	-7.305e-5
-0.559	-1.112e-4	-7.327e-5
-0.560	-1.109e-4	-7.349e-5
-0.561	-1.106e-4	-7.371e-5
-0.562	-1.103e-4	-7.393e-5
-0.563	-1.100e-4	-7.415e-5
-0.564	-1.098e-4	-7.437e-5
-0.565	-1.095e-4	-7.459e-5
-0.566	-1.092e-4	-7.481e-5
-0.567	-1.089e-4	-7.503e-5
-0.568	-1.086e-4	-7.524e-5
-0.569	-1.084e-4	-7.546e-5
-0.570	-1.081e-4	-7.568e-5
-0.571	-1.078e-4	-7.589e-5
-0.572	-1.076e-4	-7.611e-5
-0.573	-1.073e-4	-7.632e-5
-0.574	-1.070e-4	-7.654e-5
-0.575	-1.068e-4	-7.675e-5
-0.576	-1.065e-4	-7.696e-5
-0.577	-1.063e-4	-7.718e-5
-0.578	-1.060e-4	-7.739e-5
-0.579	-1.058e-4	-7.760e-5
-0.580	-1.055e-4	-7.781e-5
-0.581	-1.053e-4	-7.802e-5
-0.582	-1.050e-4	-7.823e-5
-0.583	-1.048e-4	-7.844e-5
-0.584	-1.045e-4	-7.865e-5
-0.585	-1.043e-4	-7.886e-5
-0.586	-1.041e-4	-7.907e-5
-0.587	-1.038e-4	-7.927e-5
-0.588	-1.036e-4	-7.948e-5
-0.589	-1.034e-4	-7.969e-5
-0.590	-1.031e-4	-7.989e-5
-0.591	-1.029e-4	-8.010e-5
-0.592	-1.027e-4	-8.031e-5
-0.593	-1.025e-4	-8.051e-5
-0.594	-1.022e-4	-8.072e-5
-0.595	-1.020e-4	-8.092e-5
-0.596	-1.018e-4	-8.112e-5
-0.597	-1.016e-4	-8.133e-5
-0.598	-1.013e-4	-8.153e-5
-0.599	-1.011e-4	-8.173e-5
-0.600	-1.005e-4	-2.009e-7
-0.599	-9.970e-5	-4.003e-7
-0.598	-9.906e-5	-5.984e-7
-0.597	-9.854e-5	-7.955e-7
-0.596	-9.817e-5	-9.919e-7
-0.595	-9.787e-5	-1.188e-6
-0.594	-9.758e-5	-1.383e-6
-0.593	-9.727e-5	-1.577e-6
-0.592	-9.698e-5	-1.771e-6
-0.591	-9.671e-5	-1.965e-6
-0.590	-9.644e-5	-2.158e-6
-0.589	-9.618e-5	-2.350e-6
-0.588	-9.592e-5	-2.542e-6
-0.587	-9.566e-5	-2.733e-6
-0.586	-9.542e-5	-2.924e-6
-0.585	-9.517e-5	-3.114e-6
-0.584	-9.492e-5	-3.304e-6
-0.583	-9.468e-5	-3.493e-6
-0.582	-9.443e-5	-3.682e-6
-0.581	-9.419e-5	-3.871e-6
-0.580	-9.396e-5	-4.059e-6
-0.579	-9.374e-5	-4.246e-6
-0.578	-9.351e-5	-4.433e-6
-0.577	-9.329e-5	-4.620e-6
-0.576	-9.307e-5	-4.806e-6
-0.575	-9.284e-5	-4.992e-6
-0.574	-9.262e-5	-5.177e-6
-0.573	-9.240e-5	-5.362e-6
-0.572	-9.219e-5	-5.546e-6
-0.571	-9.197e-5	-5.730e-6
-0.570	-9.176e-5	-5.913e-6
-0.569	-9.155e-5	-6.097e-6
-0.568	-9.135e-5	-6.279e-6
-0.567	-9.115e-5	-6.462e-6
-0.566	-9.095e-5	-6.643e-6
-0.565	-9.075e-5	-6.825e-6
-0.564	-9.055e-5	-7.006e-6
-0.563	-9.034e-5	-7.187e-6
-0.562	-9.014e-5	-7.367e-6
-0.561	-8.995e-5	-7.547e-6
-0.560	-8.975e-5	-7.726e-6
-0.559	-8.956e-5	-7.906e-6
-0.558	-8.937e-5	-8.084e-6
-0.557	-8.918e-5	-8.263e-6
-0.556	-8.899e-5	-8.441e-6
-0.555	-8.880e-5	-8.618e-6
-0.554	-8.862e-5	-8.795e-6
-0.553	-8.844e-5	-8.972e-6
-0.552	-8.825e-5	-9.149e-6
-0.551	-8.806e-5	-9.325e-6
-0.550	-8.787e-5	-9.501e-6
-0.549	-8.769e-5	-9.676e-6
-0.548	-8.751e-5	-9.851e-6
-0.547	-8.733e-5	-1.003e-5
-0.546	-8.715e-5	-1.020e-5
-0.545	-8.697e-5	-1.037e-5
-0.544	-8.679e-5	-1.055e-5
-0.543	-8.660e-5	-1.072e-5
-0.542	-8.643e-5	-1.089e-5
-0.541	-8.625e-5	-1.107e-5
-0.540	-8.608e-5	-1.124e-5
-0.539	-8.591e-5	-1.141e-5
-0.538	-8.574e-5	-1.158e-5
-0.537	-8.557e-5	-1.175e-5
-0.536	-8.539e-5	-1.192e-5
-0.535	-8.522e-5	-1.209e-5
-0.534	-8.504e-5	-1.226e-5
-0.533	-8.487e-5	-1.243e-5
-0.532	-8.470e-5	-1.260e-5
-0.531	-8.453e-5	-1.277e-5
-0.530	-8.436e-5	-1.294e-5
-0.529	-8.420e-5	-1.311e-5
-0.528	-8.403e-5	-1.328e-5
-0.527	-8.387e-5	-1.345e-5
-0.526	-8.370e-5	-1.361e-5
-0.525	-8.353e-5	-1.378e-5
-0.524	-8.336e-5	-1.395e-5
-0.523	-8.319e-5	-1.411e-5
-0.522	-8.302e-5	-1.428e-5
-0.521	-8.284e-5	-1.444e-5
-0.520	-8.268e-5	-1.461e-5
-0.519	-8.251e-5	-1.477e-5
-0.518	-8.235e-5	-1.494e-5
-0.517	-8.219e-5	-1.510e-5
-0.516	-8.203e-5	-1.527e-5
-0.515	-8.186e-5	-1.543e-5
-0.514	-8.169e-5	-1.560e-5
-0.513	-8.152e-5	-1.576e-5
-0.512	-8.135e-5	-1.592e-5
-0.511	-8.117e-5	-1.608e-5
-0.510	-8.101e-5	-1.625e-5
-0.509	-8.085e-5	-1.641e-5
-0.508	-8.069e-5	-1.657e-5
-0.507	-8.052e-5	-1.673e-5
-0.506	-8.036e-5	-1.689e-5
-0.505	-8.018e-5	-1.705e-5
-0.504	-8.001e-5	-1.721e-5
-0.503	-7.983e-5	-1.737e-5
-0.502	-7.965e-5	-1.753e-5
-0.501	-7.948e-5	-1.769e-5
-0.500	-7.930e-5	-1.785e-5
-0.499	-7.912e-5	-1.801e-5
-0.498	-7.895e-5	-1.816e-5
-0.497	-7.877e-5	-1.832e-5
-0.496	-7.859e-5	-1.848e-5
-0.495	-7.841e-5	-1.863e-5
-0.494	-7.823e-5	-1.879e-5
-0.493	-7.804e-5	-1.895e-5
-0.492	-7.786e-5	-1.910e-5
-0.491	-7.767e-5	-1.926e-5
-0.490	-7.748e-5	-1.941e-5
-0.489	-7.728e-5	-1.957e-5
-0.488	-7.710e-5	-1.972e-5
-0.487	-7.691e-5	-1.988e-5
-0.486	-7.673e-5	-2.003e-5
-0.485	-7.653e-5	-2.018e-5
-0.484	-7.633e-5	-2.033e-5
-0.483	-7.613e-5	-2.049e-5
-0.482	-7.592e-5	-2.064e-5
-0.481	-7.570e-5	-2.079e-5
-0.480	-7.549e-5	-2.094e-5
-0.479	-7.528e-5	-2.109e-5
-0.478	-7.508e-5	-2.124e-5
-0.477	-7.487e-5	-2.139e-5
-0.476	-7.466e-5	-2.154e-5
-0.475	-7.444e-5	-2.169e-5
-0.474	-7.421e-5	-2.184e-5
-0.473	-7.397e-5	-2.199e-5
-0.472	-7.373e-5	-2.213e-5
-0.471	-7.348e-5	-2.228e-5
-0.470	-7.324e-5	-2.243e-5
-0.469	-7.299e-5	-2.257e-5
-0.468	-7.274e-5	-2.272e-5
-0.467	-7.249e-5	-2.286e-5
-0.466	-7.222e-5	-2.301e-5
-0.465	-7.195e-5	-2.315e-5
-0.464	-7.168e-5	-2.330e-5
-0.463	-7.139e-5	-2.344e-5
-0.462	-7.109e-5	-2.358e-5
-0.461	-7.080e-5	-2.372e-5
-0.460	-7.050e-5	-2.386e-5
-0.459	-7.020e-5	-2.400e-5
-0.458	-6.988e-5	-2.414e-5
-0.457	-6.957e-5	-2.428e-5
-0.456	-6.924e-5	-2.442e-5
-0.455	-6.891e-5	-2.456e-5
-0.454	-6.857e-5	-2.470e-5
-0.453	-6.822e-5	-2.483e-5
-0.452	-6.787e-5	-2.497e-5
-0.451	-6.750e-5	-2.510e-5
-0.450	-6.712e-5	-2.524e-5
-0.449	-6.673e-5	-2.537e-5
-0.448	-6.633e-5	-2.550e-5
-0.447	-6.593e-5	-2.564e-5
-0.446	-6.552e-5	-2.577e-5
-0.445	-6.509e-5	-2.590e-5
-0.444	-6.466e-5	-2.603e-5
-0.443	-6.421e-5	-2.615e-5
-0.442	-6.375e-5	-2.628e-5
-0.441	-6.327e-5	-2.641e-5
-0.440	-6.277e-5	-2.653e-5
-0.439	-6.227e-5	-2.666e-5
-0.438	-6.175e-5	-2.678e-5
-0.437	-6.122e-5	-2.690e-5
-0.436	-6.068e-5	-2.703e-5
-0.435	-6.012e-5	-2.715e-5
-0.434	-5.955e-5	-2.726e-5
-0.433	-5.897e-5	-2.738e-5
-0.432	-5.837e-5	-2.750e-5
-0.431	-5.775e-5	-2.761e-5
-0.430	-5.710e-5	-2.773e-5
-0.429	-5.642e-5	-2.784e-5
-0.428	-5.573e-5	-2.795e-5
-0.427	-5.502e-5	-2.806e-5
-0.426	-5.431e-5	-2.817e-5
-0.425	-5.358e-5	-2.828e-5
-0.424	-5.282e-5	-2.838e-5
-0.423	-5.204e-5	-2.849e-5
-0.422	-5.123e-5	-2.859e-5
-0.421	-5.039e-5	-2.869e-5
-0.420	-4.953e-5	-2.879e-5
-0.419	-4.864e-5	-2.889e-5
-0.418	-4.772e-5	-2.898e-5
-0.417	-4.679e-5	-2.908e-5
-0.416	-4.583e-5	-2.917e-5
-0.415	-4.485e-5	-2.926e-5
-0.414	-4.385e-5	-2.935e-5
-0.413	-4.281e-5	-2.943e-5
-0.412	-4.174e-5	-2.952e-5
-0.411	-4.062e-5	-2.960e-5
-0.410	-3.946e-5	-2.968e-5
-0.409	-3.827e-5	-2.975e-5
-0.408	-3.706e-5	-2.983e-5
-0.407	-3.583e-5	-2.990e-5
-0.406	-3.456e-5	-2.997e-5
-0.405	-3.326e-5	-3.003e-5
-0.404	-3.193e-5	-3.010e-5
-0.403	-3.056e-5	-3.016e-5
-0.402	-2.915e-5	-3.022e-5
-0.401	-2.769e-5	-3.027e-5
-0.400	-2.618e-5	-3.032e-5
-0.399	-2.463e-5	-3.037e-5
-0.398	-2.305e-5	-3.042e-5
-0.397	-2.144e-5	-3.046e-5
-0.396	-1.980e-5	-3.050e-5
-0.395	-1.812e-5	-3.054e-5
-0.394	-1.641e-5	-3.057e-5
-0.393	-1.467e-5	-3.060e-5
-0.392	-1.287e-5	-3.063e-5
-0.391	-1.102e-5	-3.065e-5
-0.390	-9.108e-6	-3.067e-5
-0.389	-7.158e-6	-3.068e-5
-0.388	-5.181e-6	-3.069e-5
-0.387	-3.176e-6	-3.070e-5
-0.386	-1.136e-6	-3.070e-5
-0.385	9.383e-7	-3.070e-5
-0.384	3.055e-6	-3.069e-5
-0.383	5.209e-6	-3.068e-5
-0.382	7.407e-6	-3.067e-5
-0.381	9.657e-6	-3.065e-5
-0.380	1.195e-5	-3.062e-5
-0.379	1.429e-5	-3.060e-5
-0.378	1.665e-5	-3.056e-5
-0.377	1.902e-5	-3.052e-5
-0.376	2.140e-5	-3.048e-5
-0.375	2.381e-5	-3.043e-5
-0.374	2.625e-5	-3.038e-5
-0.373	2.871e-5	-3.032e-5
-0.372	3.121e-5	-3.026e-5
-0.371	3.375e-5	-3.019e-5
-0.370	3.632e-5	-3.012e-5
-0.369	3.892e-5	-3.004e-5
-0.368	4.151e-5	-2.996e-5
-0.367	4.410e-5	-2.987e-5
-0.366	4.670e-5	-2.978e-5
-0.365	4.930e-5	-2.968e-5
-0.364	5.190e-5	-2.958e-5
-0.363	5.449e-5	-2.947e-5
-0.362	5.709e-5	-2.935e-5
-0.361	5.970e-5	-2.923e-5
-0.360	6.233e-5	-2.911e-5
-0.359	6.496e-5	-2.898e-5
-0.358	6.756e-5	-2.884e-5
-0.357	7.013e-5	-2.870e-5
-0.356	7.267e-5	-2.856e-5
-0.355	7.518e-5	-2.841e-5
-0.354	7.767e-5	-2.825e-5
-0.353	8.013e-5	-2.809e-5
-0.352	8.256e-5	-2.793e-5
-0.351	8.498e-5	-2.776e-5
-0.350	8.739e-5	-2.758e-5
-0.349	8.977e-5	-2.740e-5
-0.348	9.208e-5	-2.722e-5
-0.347	9.433e-5	-2.703e-5
-0.346	9.652e-5	-2.684e-5
-0.345	9.865e-5	-2.664e-5
-0.344	1.007e-4	-2.644e-5
-0.343	1.028e-4	-2.623e-5
-0.342	1.047e-4	-2.602e-5
-0.341	1.067e-4	-2.581e-5
-0.340	1.086e-4	-2.559e-5
-0.339	1.105e-4	-2.537e-5
-0.338	1.122e-4	-2.515e-5
-0.337	1.139e-4	-2.492e-5
-0.336	1.155e-4	-2.469e-5
-0.335	1.171e-4	-2.445e-5
-0.334	1.186e-4	-2.422e-5
-0.333	1.200e-4	-2.398e-5
-0.332	1.214e-4	-2.373e-5
-0.331	1.227e-4	-2.349e-5
-0.330	1.239e-4	-2.324e-5
-0.329	1.251e-4	-2.299e-5
-0.328	1.262e-4	-2.274e-5
-0.327	1.273e-4	-2.248e-5
-0.326	1.283e-4	-2.223e-5
-0.325	1.291e-4	-2.197e-5
-0.324	1.300e-4	-2.171e-5
-0.323	1.307e-4	-2.145e-5
-0.322	1.314e-4	-2.118e-5
-0.321	1.321e-4	-2.092e-5
-0.320	1.327e-4	-2.066e-5
-0.319	1.333e-4	-2.039e-5
-0.318	1.338e-4	-2.012e-5
-0.317	1.342e-4	-1.985e-5
-0.316	1.345e-4	-1.958e-5
-0.315	1.349e-4	-1.931e-5
-0.314	1.351e-4	-1.904e-5
-0.313	1.353e-4	-1.877e-5
-0.312	1.355e-4	-1.850e-5
-0.311	1.356e-4	-1.823e-5
-0.310	1.357e-4	-1.796e-5
-0.309	1.358e-4	-1.769e-5
-0.308	1.358e-4	-1.742e-5
-0.307	1.358e-4	-1.714e-5
-0.306	1.357e-4	-1.687e-5
-0.305	1.356e-4	-1.660e-5
-0.304	1.354e-4	-1.633e-5
-0.303	1.352e-4	-1.606e-5
-0.302	1.350e-4	-1.579e-5
-0.301	1.348e-4	-1.552e-5
-0.300	1.346e-4	-1.525e-5
-0.299	1.343e-4	-1.498e-5
-0.298	1.340e-4	-1.472e-5
-0.297	1.337e-4	-1.445e-5
-0.296	1.333e-4	-1.418e-5
-0.295	1.330e-4	-1.392e-5
-0.294	1.326e-4	-1.365e-5
-0.293	1.322e-4	-1.339e-5
-0.292	1.318e-4	-1.312e-5
-0.291	1.314e-4	-1.286e-5
-0.290	1.310e-4	-1.260e-5
-0.289	1.306e-4	-1.234e-5
-0.288	1.301e-4	-1.208e-5
-0.287	1.297e-4	-1.182e-5
-0.286	1.292e-4	-1.156e-5
-0.285	1.288e-4	-1.130e-5
-0.284	1.283e-4	-1.104e-5
-0.283	1.278e-4	-1.079e-5
-0.282	1.273e-4	-1.053e-5
-0.281	1.269e-4	-1.028e-5
-0.280	1.264e-4	-1.003e-5
-0.279	1.259e-4	-9.776e-6
-0.278	1.254e-4	-9.525e-6
-0.277	1.250e-4	-9.275e-6
-0.276	1.245e-4	-9.026e-6
-0.275	1.240e-4	-8.778e-6
-0.274	1.235e-4	-8.531e-6
-0.273	1.231e-4	-8.285e-6
-0.272	1.226e-4	-8.040e-6
-0.271	1.221e-4	-7.795e-6
-0.270	1.217e-4	-7.552e-6
-0.269	1.212e-4	-7.309e-6
-0.268	1.208e-4	-7.068e-6
-0.267	1.203e-4	-6.827e-6
-0.266	1.199e-4	-6.587e-6
-0.265	1.195e-4	-6.349e-6
-0.264	1.190e-4	-6.110e-6
-0.263	1.186e-4	-5.873e-6
-0.262	1.182e-4	-5.637e-6
-0.261	1.178e-4	-5.401e-6
-0.260	1.174e-4	-5.167e-6
-0.259	1.170e-4	-4.933e-6
-0.258	1.166e-4	-4.699e-6
-0.257	1.162e-4	-4.467e-6
-0.256	1.158e-4	-4.235e-6
-0.255	1.154e-4	-4.005e-6
-0.254	1.151e-4	-3.775e-6
-0.253	1.147e-4	-3.545e-6
-0.252	1.144e-4	-3.316e-6
-0.251	1.140e-4	-3.088e-6
-0.250	1.137e-4	-2.861e-6
-0.249	1.134e-4	-2.634e-6
-0.248	1.130e-4	-2.408e-6
-0.247	1.127e-4	-2.183e-6
-0.246	1.124e-4	-1.958e-6
-0.245	1.121e-4	-1.734e-6
-0.244	1.117e-4	-1.510e-6
-0.243	1.114e-4	-1.287e-6
-0.242	1.111e-4	-1.065e-6
-0.241	1.108e-4	-8.434e-7
-0.240	1.106e-4	-6.223e-7
-0.239	1.103e-4	-4.018e-7
-0.238	1.100e-4	-1.818e-7
-0.237	1.097e-4	3.768e-8
-0.236	1.094e-4	2.566e-7
-0.235	1.092e-4	4.749e-7
-0.234	1.089e-4	6.926e-7
-0.233	1.086e-4	9.099e-7
-0.232	1.084e-4	1.127e-6
-0.231	1.081e-4	1.343e-6
-0.230	1.078e-4	1.558e-6
-0.229	1.076e-4	1.774e-6
-0.228	1.073e-4	1.988e-6
-0.227	1.071e-4	2.202e-6
-0.226	1.068e-4	2.416e-6
-0.225	1.066e-4	2.629e-6
-0.224	1.063e-4	2.842e-6
-0.223	1.061e-4	3.054e-6
-0.222	1.058e-4	3.266e-6
-0.221	1.056e-4	3.477e-6
-0.220	1.053e-4	3.688e-6
-0.219	1.051e-4	3.898e-6
-0.218	1.049e-4	4.108e-6
-0.217	1.046e-4	4.317e-6
-0.216	1.044e-4	4.526e-6
-0.215	1.041e-4	4.734e-6
-0.214	1.039e-4	4.941e-6
-0.213	1.036e-4	5.149e-6
-0.212	1.034e-4	5.355e-6
-0.211	1.031e-4	5.562e-6
-0.210	1.029e-4	5.768e-6
-0.209	1.026e-4	5.973e-6
-0.208	1.024e-4	6.178e-6
-0.207	1.021e-4	6.382e-6
-0.206	1.019e-4	6.585e-6
-0.205	1.016e-4	6.789e-6
-0.204	1.013e-4	6.991e-6
-0.203	1.011e-4	7.193e-6
-0.202	1.008e-4	7.395e-6
-0.201	1.006e-4	7.596e-6
-0.200	1.003e-4	7.797e-6
-0.199	1.000e-4	7.997e-6
-0.198	9.977e-5	8.196e-6
-0.197	9.950e-5	8.395e-6
-0.196	9.922e-5	8.594e-6
-0.195	9.894e-5	8.792e-6
-0.194	9.867e-5	8.989e-6
-0.193	9.839e-5	9.186e-6
-0.192	9.812e-5	9.382e-6
-0.191	9.785e-5	9.578e-6
-0.190	9.757e-5	9.773e-6
-0.189	9.728e-5	9.968e-6
-0.188	9.699e-5	1.016e-5
-0.187	9.670e-5	1.035e-5
-0.186	9.641e-5	1.055e-5
-0.185	9.612e-5	1.074e-5
-0.184	9.583e-5	1.093e-5
-0.183	9.553e-5	1.112e-5
-0.182	9.523e-5	1.131e-5
-0.181	9.494e-5	1.150e-5
-0.180	9.464e-5	1.169e-5
-0.179	9.434e-5	1.188e-5
-0.178	9.404e-5	1.207e-5
-0.177	9.373e-5	1.226e-5
-0.176	9.342e-5	1.244e-5
-0.175	9.311e-5	1.263e-5
-0.174	9.280e-5	1.282e-5
-0.173	9.249e-5	1.300e-5
-0.172	9.219e-5	1.318e-5
-0.171	9.188e-5	1.337e-5
-0.170	9.157e-5	1.355e-5
-0.169	9.126e-5	1.373e-5
-0.168	9.094e-5	1.392e-5
-0.167	9.062e-5	1.410e-5
-0.166	9.031e-5	1.428e-5
-0.165	8.999e-5	1.446e-5
-0.164	8.967e-5	1.464e-5
-0.163	8.936e-5	1.482e-5
-0.162	8.904e-5	1.499e-5
-0.161	8.872e-5	1.517e-5
-0.160	8.840e-5	1.535e-5
-0.159	8.808e-5	1.552e-5
-0.158	8.777e-5	1.570e-5
-0.157	8.745e-5	1.587e-5
-0.156	8.713e-5	1.605e-5
-0.155	8.681e-5	1.622e-5
-0.154	8.649e-5	1.640e-5
-0.153	8.617e-5	1.657e-5
-0.152	8.585e-5	1.674e-5
-0.151	8.554e-5	1.691e-5
-0.150	8.523e-5	1.708e-5
-0.149	8.492e-5	1.725e-5
-0.148	8.460e-5	1.742e-5
-0.147	8.428e-5	1.759e-5
-0.146	8.397e-5	1.776e-5
-0.145	8.366e-5	1.792e-5
-0.144	8.336e-5	1.809e-5
-0.143	8.305e-5	1.826e-5
-0.142	8.274e-5	1.842e-5
-0.141	8.244e-5	1.859e-5
-0.140	8.215e-5	1.875e-5
-0.139	8.186e-5	1.892e-5
-0.138	8.156e-5	1.908e-5
-0.137	8.126e-5	1.924e-5
-0.136	8.096e-5	1.940e-5
-0.135	8.066e-5	1.956e-5
-0.134	8.037e-5	1.972e-5
-0.133	8.009e-5	1.989e-5
-0.132	7.981e-5	2.004e-5
-0.131	7.953e-5	2.020e-5
-0.130	7.926e-5	2.036e-5
-0.129	7.898e-5	2.052e-5
-0.128	7.870e-5	2.068e-5
-0.127	7.842e-5	2.083e-5
-0.126	7.815e-5	2.099e-5
-0.125	7.788e-5	2.115e-5
-0.124	7.762e-5	2.130e-5
-0.123	7.737e-5	2.146e-5
-0.122	7.712e-5	2.161e-5
-0.121	7.687e-5	2.176e-5
-0.120	7.662e-5	2.192e-5
-0.119	7.638e-5	2.207e-5
-0.118	7.613e-5	2.222e-5
-0.117	7.588e-5	2.237e-5
-0.116	7.564e-5	2.253e-5
-0.115	7.540e-5	2.268e-5
-0.114	7.516e-5	2.283e-5
-0.113	7.493e-5	2.298e-5
-0.112	7.470e-5	2.313e-5
-0.111	7.447e-5	2.328e-5
-0.110	7.425e-5	2.342e-5
-0.109	7.404e-5	2.357e-5
-0.108	7.381e-5	2.372e-5
-0.107	7.359e-5	2.387e-5
-0.106	7.336e-5	2.401e-5
-0.105	7.314e-5	2.416e-5
-0.104	7.292e-5	2.431e-5
-0.103	7.271e-5	2.445e-5
-0.102	7.250e-5	2.460e-5
-0.101	7.229e-5	2.474e-5
-0.100	7.207e-5	2.488e-5
-0.099	7.186e-5	2.503e-5
-0.098	7.164e-5	2.517e-5
-0.097	7.141e-5	2.531e-5
-0.096	7.119e-5	2.546e-5
-0.095	7.097e-5	2.560e-5
-0.094	7.075e-5	2.574e-5
-0.093	7.053e-5	2.588e-5
-0.092	7.031e-5	2.602e-5
-0.091	7.008e-5	2.616e-5
-0.090	6.986e-5	2.630e-5
-0.089	6.963e-5	2.644e-5
-0.088	6.940e-5	2.658e-5
-0.087	6.917e-5	2.672e-5
-0.086	6.894e-5	2.686e-5
-0.085	6.870e-5	2.699e-5
-0.084	6.847e-5	2.713e-5
-0.083	6.823e-5	2.727e-5
-0.082	6.800e-5	2.740e-5
-0.081	6.777e-5	2.754e-5
-0.080	6.754e-5	2.767e-5
-0.079	6.731e-5	2.781e-5
-0.078	6.707e-5	2.794e-5
-0.077	6.683e-5	2.808e-5
-0.076	6.660e-5	2.821e-5
-0.075	6.636e-5	2.834e-5
-0.074	6.613e-5	2.847e-5
-0.073	6.589e-5	2.861e-5
-0.072	6.565e-5	2.874e-5
-0.071	6.542e-5	2.887e-5
-0.070	6.519e-5	2.900e-5
-0.069	6.496e-5	2.913e-5
-0.068	6.472e-5	2.926e-5
-0.067	6.448e-5	2.939e-5
-0.066	6.424e-5	2.952e-5
-0.065	6.400e-5	2.964e-5
-0.064	6.377e-5	2.977e-5
-0.063	6.354e-5	2.990e-5
-0.062	6.332e-5	3.002e-5
-0.061	6.309e-5	3.015e-5
-0.060	6.287e-5	3.028e-5
-0.059	6.265e-5	3.040e-5
-0.058	6.242e-5	3.053e-5
-0.057	6.219e-5	3.065e-5
-0.056	6.196e-5	3.077e-5
-0.055	6.174e-5	3.090e-5
-0.054	6.152e-5	3.102e-5
-0.053	6.131e-5	3.114e-5
-0.052	6.109e-5	3.127e-5
-0.051	6.088e-5	3.139e-5
-0.050	6.066e-5	3.151e-5
-0.049	6.045e-5	3.163e-5
-0.048	6.024e-5	3.175e-5
-0.047	6.003e-5	3.187e-5
-0.046	5.982e-5	3.199e-5
-0.045	5.961e-5	3.211e-5
-0.044	5.941e-5	3.223e-5
-0.043	5.921e-5	3.235e-5
-0.042	5.902e-5	3.246e-5
-0.041	5.882e-5	3.258e-5
-0.040	5.861e-5	3.270e-5
-0.039	5.841e-5	3.282e-5
-0.038	5.821e-5	3.293e-5
-0.037	5.801e-5	3.305e-5
-0.036	5.782e-5	3.316e-5
-0.035	5.762e-5	3.328e-5
-0.034	5.743e-5	3.339e-5
-0.033	5.725e-5	3.351e-5
-0.032	5.707e-5	3.362e-5
-0.031	5.689e-5	3.374e-5
-0.030	5.671e-5	3.385e-5
-0.029	5.653e-5	3.396e-5
-0.028	5.634e-5	3.408e-5
-0.027	5.615e-5	3.419e-5
-0.026	5.597e-5	3.430e-5
-0.025	5.580e-5	3.441e-5
-0.024	5.563e-5	3.452e-5
-0.023	5.546e-5	3.463e-5
-0.022	5.529e-5	3.474e-5
-0.021	5.511e-5	3.485e-5
-0.020	5.494e-5	3.496e-5
-0.019	5.477e-5	3.507e-5
-0.018	5.460e-5	3.518e-5
-0.017	5.443e-5	3.529e-5
-0.016	5.426e-5	3.540e-5
-0.015	5.410e-5	3.551e-5
-0.014	5.394e-5	3.562e-5
-0.013	5.377e-5	3.572e-5
-0.012	5.362e-5	3.583e-5
-0.011	5.346e-5	3.594e-5
-0.010	5.330e-5	3.605e-5
-0.009	5.314e-5	3.615e-5
-0.008	5.298e-5	3.626e-5
-0.007	5.282e-5	3.636e-5
-0.006	5.266e-5	3.647e-5
-0.005	5.251e-5	3.657e-5
-0.004	5.236e-5	3.668e-5
-0.003	5.221e-5	3.678e-5
-0.002	5.207e-5	3.689e-5
-0.001	5.193e-5	3.699e-5
-0.000	5.090e-5	1.018e-7
-0.001	4.945e-5	2.007e-7
-0.002	4.827e-5	2.972e-7
-0.003	4.736e-5	3.920e-7
-0.004	4.680e-5	4.856e-7
-0.005	4.643e-5	5.784e-7
-0.006	4.612e-5	6.706e-7
-0.007	4.578e-5	7.622e-7
-0.008	4.546e-5	8.531e-7
-0.009	4.517e-5	9.435e-7
-0.010	4.488e-5	1.033e-6
-0.011	4.460e-5	1.122e-6
-0.012	4.433e-5	1.211e-6
-0.013	4.408e-5	1.299e-6
-0.014	4.383e-5	1.387e-6
-0.015	4.359e-5	1.474e-6
-0.016	4.336e-5	1.561e-6
-0.017	4.314e-5	1.647e-6
-0.018	4.292e-5	1.733e-6
-0.019	4.270e-5	1.818e-6
-0.020	4.249e-5	1.903e-6
-0.021	4.228e-5	1.988e-6
-0.022	4.207e-5	2.072e-6
-0.023	4.186e-5	2.156e-6
-0.024	4.166e-5	2.239e-6
-0.025	4.147e-5	2.322e-6
-0.026	4.128e-5	2.405e-6
-0.027	4.110e-5	2.487e-6
-0.028	4.092e-5	2.569e-6
-0.029	4.073e-5	2.650e-6
-0.030	4.055e-5	2.731e-6
-0.031	4.036e-5	2.812e-6
-0.032	4.018e-5	2.892e-6
-0.033	4.000e-5	2.972e-6
-0.034	3.983e-5	3.052e-6
-0.035	3.965e-5	3.131e-6
-0.036	3.948e-5	3.210e-6
-0.037	3.931e-5	3.289e-6
-0.038	3.914e-5	3.367e-6
-0.039	3.897e-5	3.445e-6
-0.040	3.880e-5	3.523e-6
-0.041	3.863e-5	3.600e-6
-0.042	3.846e-5	3.677e-6
-0.043	3.829e-5	3.753e-6
-0.044	3.813e-5	3.830e-6
-0.045	3.797e-5	3.906e-6
-0.046	3.781e-5	3.981e-6
-0.047	3.765e-5	4.057e-6
-0.048	3.749e-5	4.131e-6
-0.049	3.733e-5	4.206e-6
-0.050	3.717e-5	4.280e-6
-0.051	3.701e-5	4.355e-6
-0.052	3.685e-5	4.428e-6
-0.053	3.670e-5	4.502e-6
-0.054	3.654e-5	4.575e-6
-0.055	3.638e-5	4.647e-6
-0.056	3.622e-5	4.720e-6
-0.057	3.607e-5	4.792e-6
-0.058	3.591e-5	4.864e-6
-0.059	3.576e-5	4.935e-6
-0.060	3.560e-5	5.007e-6
-0.061	3.545e-5	5.077e-6
-0.062	3.530e-5	5.148e-6
-0.063	3.514e-5	5.218e-6
-0.064	3.498e-5	5.288e-6
-0.065	3.483e-5	5.358e-6
-0.066	3.467e-5	5.427e-6
-0.067	3.452e-5	5.496e-6
-0.068	3.438e-5	5.565e-6
-0.069	3.422e-5	5.634e-6
-0.070	3.406e-5	5.702e-6
-0.071	3.390e-5	5.769e-6
-0.072	3.373e-5	5.837e-6
-0.073	3.357e-5	5.904e-6
-0.074	3.341e-5	5.971e-6
-0.075	3.326e-5	6.037e-6
-0.076	3.310e-5	6.104e-6
-0.077	3.295e-5	6.170e-6
-0.078	3.279e-5	6.235e-6
-0.079	3.263e-5	6.300e-6
-0.080	3.246e-5	6.365e-6
-0.081	3.230e-5	6.430e-6
-0.082	3.212e-5	6.494e-6
-0.083	3.195e-5	6.558e-6
-0.084	3.178e-5	6.622e-6
-0.085	3.162e-5	6.685e-6
-0.086	3.145e-5	6.748e-6
-0.087	3.128e-5	6.810e-6
-0.088	3.111e-5	6.873e-6
-0.089	3.094e-5	6.934e-6
-0.090	3.078e-5	6.996e-6
-0.091	3.061e-5	7.057e-6
-0.092	3.044e-5	7.118e-6
-0.093	3.026e-5	7.179e-6
-0.094	3.009e-5	7.239e-6
-0.095	2.992e-5	7.299e-6
-0.096	2.975e-5	7.358e-6
-0.097	2.959e-5	7.417e-6
-0.098	2.942e-5	7.476e-6
-0.099	2.927e-5	7.535e-6
-0.100	2.911e-5	7.593e-6
-0.101	2.894e-5	7.651e-6
-0.102	2.877e-5	7.708e-6
-0.103	2.861e-5	7.766e-6
-0.104	2.844e-5	7.822e-6
-0.105	2.829e-5	7.879e-6
-0.106	2.814e-5	7.935e-6
-0.107	2.800e-5	7.991e-6
-0.108	2.786e-5	8.047e-6
-0.109	2.771e-5	8.102e-6
-0.110	2.756e-5	8.158e-6
-0.111	2.742e-5	8.212e-6
-0.112	2.727e-5	8.267e-6
-0.113	2.714e-5	8.321e-6
-0.114	2.700e-5	8.375e-6
-0.115	2.687e-5	8.429e-6
-0.116	2.674e-5	8.482e-6
-0.117	2.661e-5	8.536e-6
-0.118	2.649e-5	8.589e-6
-0.119	2.638e-5	8.641e-6
-0.120	2.627e-5	8.694e-6
-0.121	2.615e-5	8.746e-6
-0.122	2.603e-5	8.798e-6
-0.123	2.591e-5	8.850e-6
-0.124	2.580e-5	8.902e-6
-0.125	2.568e-5	8.953e-6
-0.126	2.557e-5	9.004e-6
-0.127	2.547e-5	9.055e-6
-0.128	2.537e-5	9.106e-6
-0.129	2.527e-5	9.156e-6
-0.130	2.517e-5	9.207e-6
-0.131	2.507e-5	9.257e-6
-0.132	2.496e-5	9.307e-6
-0.133	2.486e-5	9.357e-6
-0.134	2.475e-5	9.406e-6
-0.135	2.464e-5	9.455e-6
-0.136	2.453e-5	9.504e-6
-0.137	2.443e-5	9.553e-6
-0.138	2.434e-5	9.602e-6
-0.139	2.425e-5	9.650e-6
-0.140	2.415e-5	9.699e-6
-0.141	2.406e-5	9.747e-6
-0.142	2.395e-5	9.795e-6
-0.143	2.384e-5	9.842e-6
-0.144	2.373e-5	9.890e-6
-0.145	2.362e-5	9.937e-6
-0.146	2.352e-5	9.984e-6
-0.147	2.342e-5	1.003e-5
-0.148	2.332e-5	1.008e-5
-0.149	2.322e-5	1.012e-5
-0.150	2.311e-5	1.017e-5
-0.151	2.300e-5	1.022e-5
-0.152	2.288e-5	1.026e-5
-0.153	2.277e-5	1.031e-5
-0.154	2.265e-5	1.035e-5
-0.155	2.253e-5	1.040e-5
-0.156	2.242e-5	1.044e-5
-0.157	2.231e-5	1.049e-5
-0.158	2.220e-5	1.053e-5
-0.159	2.209e-5	1.058e-5
-0.160	2.197e-5	1.062e-5
-0.161	2.185e-5	1.066e-5
-0.162	2.173e-5	1.071e-5
-0.163	2.160e-5	1.075e-5
-0.164	2.148e-5	1.079e-5
-0.165	2.136e-5	1.084e-5
-0.166	2.123e-5	1.088e-5
-0.167	2.111e-5	1.092e-5
-0.168	2.099e-5	1.096e-5
-0.169	2.086e-5	1.100e-5
-0.170	2.073e-5	1.105e-5
-0.171	2.060e-5	1.109e-5
-0.172	2.047e-5	1.113e-5
-0.173	2.033e-5	1.117e-5
-0.174	2.020e-5	1.121e-5
-0.175	2.006e-5	1.125e-5
-0.176	1.991e-5	1.129e-5
-0.177	1.977e-5	1.133e-5
-0.178	1.963e-5	1.137e-5
-0.179	1.949e-5	1.141e-5
-0.180	1.935e-5	1.145e-5
-0.181	1.920e-5	1.148e-5
-0.182	1.905e-5	1.152e-5
-0.183	1.890e-5	1.156e-5
-0.184	1.874e-5	1.160e-5
-0.185	1.859e-5	1.163e-5
-0.186	1.844e-5	1.167e-5
-0.187	1.828e-5	1.171e-5
-0.188	1.813e-5	1.174e-5
-0.189	1.797e-5	1.178e-5
-0.190	1.780e-5	1.182e-5
-0.191	1.764e-5	1.185e-5
-0.192	1.747e-5	1.189e-5
-0.193	1.730e-5	1.192e-5
-0.194	1.713e-5	1.195e-5
-0.195	1.696e-5	1.199e-5
-0.196	1.679e-5	1.202e-5
-0.197	1.661e-5	1.206e-5
-0.198	1.643e-5	1.209e-5
-0.199	1.625e-5	1.212e-5
-0.200	1.607e-5	1.215e-5
-0.201	1.588e-5	1.218e-5
-0.202	1.568e-5	1.222e-5
-0.203	1.548e-5	1.225e-5
-0.204	1.528e-5	1.228e-5
-0.205	1.509e-5	1.231e-5
-0.206	1.489e-5	1.234e-5
-0.207	1.470e-5	1.237e-5
-0.208	1.450e-5	1.240e-5
-0.209	1.430e-5	1.242e-5
-0.210	1.409e-5	1.245e-5
-0.211	1.388e-5	1.248e-5
-0.212	1.367e-5	1.251e-5
-0.213	1.345e-5	1.253e-5
-0.214	1.322e-5	1.256e-5
-0.215	1.299e-5	1.259e-5
-0.216	1.277e-5	1.261e-5
-0.217	1.254e-5	1.264e-5
-0.218	1.232e-5	1.266e-5
-0.219	1.209e-5	1.269e-5
-0.220	1.185e-5	1.271e-5
-0.221	1.161e-5	1.273e-5
-0.222	1.137e-5	1.276e-5
-0.223	1.112e-5	1.278e-5
-0.224	1.087e-5	1.280e-5
-0.225	1.062e-5	1.282e-5
-0.226	1.036e-5	1.284e-5
-0.227	1.010e-5	1.286e-5
-0.228	9.844e-6	1.288e-5
-0.229	9.576e-6	1.290e-5
-0.230	9.304e-6	1.292e-5
-0.231	9.028e-6	1.294e-5
-0.232	8.749e-6	1.296e-5
-0.233	8.470e-6	1.297e-5
-0.234	8.187e-6	1.299e-5
-0.235	7.897e-6	1.300e-5
-0.236	7.602e-6	1.302e-5
-0.237	7.302e-6	1.303e-5
-0.238	6.997e-6	1.305e-5
-0.239	6.690e-6	1.306e-5
-0.240	6.379e-6	1.307e-5
-0.241	6.064e-6	1.309e-5
-0.242	5.744e-6	1.310e-5
-0.243	5.419e-6	1.311e-5
-0.244	5.088e-6	1.312e-5
-0.245	4.752e-6	1.313e-5
-0.246	4.412e-6	1.314e-5
-0.247	4.066e-6	1.315e-5
-0.248	3.715e-6	1.315e-5
-0.249	3.360e-6	1.316e-5
-0.250	2.997e-6	1.317e-5
-0.251	2.628e-6	1.317e-5
-0.252	2.253e-6	1.318e-5
-0.253	1.872e-6	1.318e-5
-0.254	1.485e-6	1.318e-5
-0.255	1.088e-6	1.318e-5
-0.256	6.797e-7	1.319e-5
-0.257	2.624e-7	1.319e-5
-0.258	-1.603e-7	1.319e-5
-0.259	-5.888e-7	1.318e-5
-0.260	-1.024e-6	1.318e-5
-0.261	-1.474e-6	1.318e-5
-0.262	-1.937e-6	1.318e-5
-0.263	-2.408e-6	1.317e-5
-0.264	-2.885e-6	1.317e-5
-0.265	-3.371e-6	1.316e-5
-0.266	-3.868e-6	1.315e-5
-0.267	-4.378e-6	1.314e-5
-0.268	-4.901e-6	1.313e-5
-0.269	-5.435e-6	1.312e-5
-0.270	-5.984e-6	1.311e-5
-0.271	-6.550e-6	1.310e-5
-0.272	-7.137e-6	1.308e-5
-0.273	-7.740e-6	1.307e-5
-0.274	-8.358e-6	1.305e-5
-0.275	-8.992e-6	1.303e-5
-0.276	-9.640e-6	1.301e-5
-0.277	-1.030e-5	1.299e-5
-0.278	-1.098e-5	1.297e-5
-0.279	-1.168e-5	1.295e-5
-0.280	-1.240e-5	1.292e-5
-0.281	-1.314e-5	1.290e-5
-0.282	-1.391e-5	1.287e-5
-0.283	-1.470e-5	1.284e-5
-0.284	-1.552e-5	1.281e-5
-0.285	-1.637e-5	1.277e-5
-0.286	-1.724e-5	1.274e-5
-0.287	-1.814e-5	1.270e-5
-0.288	-1.908e-5	1.267e-5
-0.289	-2.003e-5	1.263e-5
-0.290	-2.102e-5	1.258e-5
-0.291	-2.205e-5	1.254e-5
-0.292	-2.311e-5	1.249e-5
-0.293	-2.420e-5	1.244e-5
-0.294	-2.534e-5	1.239e-5
-0.295	-2.651e-5	1.234e-5
-0.296	-2.773e-5	1.229e-5
-0.297	-2.899e-5	1.223e-5
-0.298	-3.029e-5	1.217e-5
-0.299	-3.165e-5	1.210e-5
-0.300	-3.304e-5	1.204e-5
-0.301	-3.448e-5	1.197e-5
-0.302	-3.597e-5	1.190e-5
-0.303	-3.752e-5	1.182e-5
-0.304	-3.912e-5	1.174e-5
-0.305	-4.079e-5	1.166e-5
-0.306	-4.251e-5	1.158e-5
-0.307	-4.430e-5	1.149e-5
-0.308	-4.613e-5	1.140e-5
-0.309	-4.802e-5	1.130e-5
-0.310	-4.997e-5	1.120e-5
-0.311	-5.199e-5	1.110e-5
-0.312	-5.408e-5	1.099e-5
-0.313	-5.625e-5	1.088e-5
-0.314	-5.848e-5	1.076e-5
-0.315	-6.078e-5	1.064e-5
-0.316	-6.315e-5	1.051e-5
-0.317	-6.559e-5	1.038e-5
-0.318	-6.810e-5	1.024e-5
-0.319	-7.068e-5	1.010e-5
-0.320	-7.332e-5	9.955e-6
-0.321	-7.603e-5	9.803e-6
-0.322	-7.881e-5	9.646e-6
-0.323	-8.166e-5	9.482e-6
-0.324	-8.459e-5	9.313e-6
-0.325	-8.759e-5	9.138e-6
-0.326	-9.066e-5	8.957e-6
-0.327	-9.379e-5	8.769e-6
-0.328	-9.697e-5	8.575e-6
-0.329	-1.002e-4	8.375e-6
-0.330	-1.035e-4	8.168e-6
-0.331	-1.068e-4	7.954e-6
-0.332	-1.102e-4	7.734e-6
-0.333	-1.136e-4	7.506e-6
-0.334	-1.171e-4	7.272e-6
-0.335	-1.206e-4	7.031e-6
-0.336	-1.242e-4	6.783e-6
-0.337	-1.277e-4	6.527e-6
-0.338	-1.313e-4	6.265e-6
-0.339	-1.349e-4	5.995e-6
-0.340	-1.385e-4	5.718e-6
-0.341	-1.421e-4	5.433e-6
-0.342	-1.457e-4	5.142e-6
-0.343	-1.493e-4	4.843e-6
-0.344	-1.529e-4	4.537e-6
-0.345	-1.566e-4	4.224e-6
-0.346	-1.601e-4	3.904e-6
-0.347	-1.637e-4	3.577e-6
-0.348	-1.672e-4	3.242e-6
-0.349	-1.707e-4	2.901e-6
-0.350	-1.741e-4	2.553e-6
-0.351	-1.774e-4	2.198e-6
-0.352	-1.807e-4	1.836e-6
-0.353	-1.840e-4	1.468e-6
-0.354	-1.872e-4	1.094e-6
-0.355	-1.904e-4	7.131e-7
-0.356	-1.935e-4	3.261e-7
-0.357	-1.965e-4	-6.682e-8
-0.358	-1.994e-4	-4.656e-7
-0.359	-2.022e-4	-8.700e-7
-0.360	-2.049e-4	-1.280e-6
-0.361	-2.075e-4	-1.695e-6
-0.362	-2.101e-4	-2.115e-6
-0.363	-2.125e-4	-2.540e-6
-0.364	-2.149e-4	-2.970e-6
-0.365	-2.172e-4	-3.404e-6
-0.366	-2.193e-4	-3.843e-6
-0.367	-2.214e-4	-4.286e-6
-0.368	-2.234e-4	-4.732e-6
-0.369	-2.252e-4	-5.183e-6
-0.370	-2.269e-4	-5.637e-6
-0.371	-2.285e-4	-6.094e-6
-0.372	-2.300e-4	-6.553e-6
-0.373	-2.313e-4	-7.016e-6
-0.374	-2.326e-4	-7.481e-6
-0.375	-2.338e-4	-7.949e-6
-0.376	-2.349e-4	-8.419e-6
-0.377	-2.359e-4	-8.891e-6
-0.378	-2.367e-4	-9.364e-6
-0.379	-2.374e-4	-9.839e-6
-0.380	-2.380e-4	-1.031e-5
-0.381	-2.385e-4	-1.079e-5
-0.382	-2.389e-4	-1.127e-5
-0.383	-2.392e-4	-1.175e-5
-0.384	-2.395e-4	-1.223e-5
-0.385	-2.396e-4	-1.271e-5
-0.386	-2.396e-4	-1.319e-5
-0.387	-2.395e-4	-1.366e-5
-0.388	-2.394e-4	-1.414e-5
-0.389	-2.391e-4	-1.462e-5
-0.390	-2.387e-4	-1.510e-5
-0.391	-2.383e-4	-1.558e-5
-0.392	-2.378e-4	-1.605e-5
-0.393	-2.372e-4	-1.653e-5
-0.394	-2.366e-4	-1.700e-5
-0.395	-2.359e-4	-1.747e-5
-0.396	-2.351e-4	-1.794e-5
-0.397	-2.343e-4	-1.841e-5
-0.398	-2.335e-4	-1.888e-5
-0.399	-2.325e-4	-1.934e-5
-0.400	-2.315e-4	-1.980e-5
-0.401	-2.305e-4	-2.027e-5
-0.402	-2.294e-4	-2.072e-5
-0.403	-2.283e-4	-2.118e-5
-0.404	-2.272e-4	-2.164e-5
-0.405	-2.260e-4	-2.209e-5
-0.406	-2.248e-4	-2.254e-5
-0.407	-2.236e-4	-2.298e-5
-0.408	-2.223e-4	-2.343e-5
-0.409	-2.210e-4	-2.387e-5
-0.410	-2.197e-4	-2.431e-5
-0.411	-2.184e-4	-2.475e-5
-0.412	-2.170e-4	-2.518e-5
-0.413	-2.157e-4	-2.561e-5
-0.414	-2.144e-4	-2.604e-5
-0.415	-2.130e-4	-2.647e-5
-0.416	-2.116e-4	-2.689e-5
-0.417	-2.103e-4	-2.731e-5
-0.418	-2.089e-4	-2.773e-5
-0.419	-2.075e-4	-2.814e-5
-0.420	-2.061e-4	-2.856e-5
-0.421	-2.047e-4	-2.897e-5
-0.422	-2.034e-4	-2.937e-5
-0.423	-2.020e-4	-2.978e-5
-0.424	-2.006e-4	-3.018e-5
-0.425	-1.993e-4	-3.058e-5
-0.426	-1.979e-4	-3.097e-5
-0.427	-1.966e-4	-3.136e-5
-0.428	-1.953e-4	-3.176e-5
-0.429	-1.939e-4	-3.214e-5
-0.430	-1.926e-4	-3.253e-5
-0.431	-1.913e-4	-3.291e-5
-0.432	-1.900e-4	-3.329e-5
-0.433	-1.887e-4	-3.367e-5
-0.434	-1.875e-4	-3.404e-5
-0.435	-1.862e-4	-3.442e-5
-0.436	-1.850e-4	-3.479e-5
-0.437	-1.837e-4	-3.515e-5
-0.438	-1.825e-4	-3.552e-5
-0.439	-1.813e-4	-3.588e-5
-0.440	-1.801e-4	-3.624e-5
-0.441	-1.789e-4	-3.660e-5
-0.442	-1.778e-4	-3.695e-5
-0.443	-1.766e-4	-3.731e-5
-0.444	-1.755e-4	-3.766e-5
-0.445	-1.743e-4	-3.801e-5
-0.446	-1.732e-4	-3.835e-5
-0.447	-1.721e-4	-3.870e-5
-0.448	-1.710e-4	-3.904e-5
-0.449	-1.700e-4	-3.938e-5
-0.450	-1.689e-4	-3.972e-5
-0.451	-1.679e-4	-4.005e-5
-0.452	-1.668e-4	-4.039e-5
-0.453	-1.658e-4	-4.072e-5
-0.454	-1.648e-4	-4.105e-5
-0.455	-1.638e-4	-4.138e-5
-0.456	-1.629e-4	-4.170e-5
-0.457	-1.619e-4	-4.203e-5
-0.458	-1.609e-4	-4.235e-5
-0.459	-1.600e-4	-4.267e-5
-0.460	-1.591e-4	-4.299e-5
-0.461	-1.581e-4	-4.330e-5
-0.462	-1.572e-4	-4.362e-5
-0.463	-1.563e-4	-4.393e-5
-0.464	-1.555e-4	-4.424e-5
-0.465	-1.546e-4	-4.455e-5
-0.466	-1.538e-4	-4.486e-5
-0.467	-1.529e-4	-4.516e-5
-0.468	-1.521e-4	-4.547e-5
-0.469	-1.513e-4	-4.577e-5
-0.470	-1.505e-4	-4.607e-5
-0.471	-1.497e-4	-4.637e-5
-0.472	-1.489e-4	-4.667e-5
-0.473	-1.481e-4	-4.696e-5
-0.474	-1.473e-4	-4.726e-5
-0.475	-1.466e-4	-4.755e-5
-0.476	-1.458e-4	-4.784e-5
-0.477	-1.451e-4	-4.813e-5
-0.478	-1.443e-4	-4.842e-5
-0.479	-1.436e-4	-4.871e-5
-0.480	-1.429e-4	-4.899e-5
-0.481	-1.422e-4	-4.928e-5
-0.482	-1.415e-4	-4.956e-5
-0.483	-1.408e-4	-4.984e-5
-0.484	-1.402e-4	-5.012e-5
-0.485	-1.395e-4	-5.040e-5
-0.486	-1.389e-4	-5.068e-5
-0.487	-1.382e-4	-5.096e-5
-0.488	-1.376e-4	-5.123e-5
-0.489	-1.370e-4	-5.151e-5
-0.490	-1.363e-4	-5.178e-5
-0.491	-1.357e-4	-5.205e-5
-0.492	-1.351e-4	-5.232e-5
-0.493	-1.345e-4	-5.259e-5
-0.494	-1.339e-4	-5.286e-5
-0.495	-1.334e-4	-5.312e-5
-0.496	-1.328e-4	-5.339e-5
-0.497	-1.322e-4	-5.365e-5
-0.498	-1.316e-4	-5.392e-5
-0.499	-1.311e-4	-5.418e-5
-0.500	-1.305e-4	-5.444e-5
-0.501	-1.300e-4	-5.470e-5
-0.502	-1.295e-4	-5.496e-5
-0.503	-1.289e-4	-5.522e-5
-0.504	-1.284e-4	-5.548e-5
-0.505	-1.279e-4	-5.573e-5
-0.506	-1.274e-4	-5.599e-5
-0.507	-1.269e-4	-5.624e-5
-0.508	-1.264e-4	-5.649e-5
-0.509	-1.259e-4	-5.674e-5
-0.510	-1.254e-4	-5.699e-5
-0.511	-1.249e-4	-5.724e-5
-0.512	-1.245e-4	-5.749e-5
-0.513	-1.240e-4	-5.774e-5
-0.514	-1.235e-4	-5.799e-5
-0.515	-1.231e-4	-5.823e-5
-0.516	-1.226e-4	-5.848e-5
-0.517	-1.222e-4	-5.872e-5
-0.518	-1.217e-4	-5.897e-5
-0.519	-1.213e-4	-5.921e-5
-0.520	-1.209e-4	-5.945e-5
-0.521	-1.204e-4	-5.969e-5
-0.522	-1.200e-4	-5.993e-5
-0.523	-1.196e-4	-6.017e-5
-0.524	-1.192e-4	-6.041e-5
-0.525	-1.188e-4	-6.065e-5
-0.526	-1.184e-4	-6.088e-5
-0.527	-1.180e-4	-6.112e-5
-0.528	-1.176e-4	-6.136e-5
-0.529	-1.172e-4	-6.159e-5
-0.530	-1.168e-4	-6.182e-5
-0.531	-1.164e-4	-6.206e-5
-0.532	-1.160e-4	-6.229e-5
-0.533	-1.156e-4	-6.252e-5
-0.534	-1.153e-4	-6.275e-5
-0.535	-1.149e-4	-6.298e-5
-0.536	-1.145e-4	-6.321e-5
-0.537	-1.142e-4	-6.344e-5
-0.538	-1.138e-4	-6.367e-5
-0.539	-1.134e-4	-6.389e-5
-0.540	-1.131e-4	-6.412e-5
-0.541	-1.127e-4	-6.434e-5
-0.542	-1.124e-4	-6.457e-5
-0.543	-1.121e-4	-6.479e-5
-0.544	-1.117e-4	-6.502e-5
-0.545	-1.114e-4	-6.524e-5
-0.546	-1.111e-4	-6.546e-5
-0.547	-1.107e-4	-6.568e-5
-0.548	-1.104e-4	-6.590e-5
-0.549	-1.101e-4	-6.612e-5
-0.550	-1.097e-4	-6.634e-5
-0.551	-1.094e-4	-6.656e-5
-0.552	-1.091e-4	-6.678e-5
-0.553	-1.088e-4	-6.700e-5
-0.554	-1.085e-4	-6.721e-5
-0.555	-1.082e-4	-6.743e-5
-0.556	-1.079e-4	-6.765e-5
-0.557	-1.076e-4	-6.786e-5
-0.558	-1.073e-4	-6.808e-5
-0.559	-1.070e-4	-6.829e-5
-0.560	-1.067e-4	-6.850e-5
-0.561	-1.065e-4	-6.872e-5
-0.562	-1.062e-4	-6.893e-5
-0.563	-1.059e-4	-6.914e-5
-0.564	-1.056e-4	-6.935e-5
-0.565	-1.053e-4	-6.956e-5
-0.566	-1.050e-4	-6.977e-5
-0.567	-1.048e-4	-6.998e-5
-0.568	-1.045e-4	-7.019e-5
-0.569	-1.042e-4	-7.040e-5
-0.570	-1.040e-4	-7.061e-5
-0.571	-1.037e-4	-7.082e-5
-0.572	-1.035e-4	-7.102e-5
-0.573	-1.032e-4	-7.123e-5
-0.574	-1.029e-4	-7.143e-5
-0.575	-1.027e-4	-7.164e-5
-0.576	-1.024e-4	-7.185e-5
-0.577	-1.022e-4	-7.205e-5
-0.578	-1.019e-4	-7.225e-5
-0.579	-1.017e-4	-7.246e-5
-0.580	-1.014e-4	-7.266e-5
-0.581	-1.012e-4	-7.286e-5
-0.582	-1.009e-4	-7.306e-5
-0.583	-1.007e-4	-7.327e-5
-0.584	-1.005e-4	-7.347e-5
-0.585	-1.002e-4	-7.367e-5
-0.586	-1.000e-4	-7.387e-5
-0.587	-9.978e-5	-7.407e-5
-0.588	-9.954e-5	-7.427e-5
-0.589	-9.931e-5	-7.446e-5
-0.590	-9.909e-5	-7.466e-5
-0.591	-9.886e-5	-7.486e-5
-0.592	-9.865e-5	-7.506e-5
-0.593	-9.843e-5	-7.525e-5
-0.594	-9.821e-5	-7.545e-5
-0.595	-9.799e-5	-7.565e-5
-0.596	-9.778e-5	-7.584e-5
-0.597	-9.756e-5	-7.604e-5
-0.598	-9.735e-5	-7.623e-5
-0.599	-9.714e-5	-7.643e-5
-0.600	-9.646e-5	-1.929e-7
-0.599	-9.572e-5	-3.844e-7
-0.598	-9.509e-5	-5.745e-7
-0.597	-9.457e-5	-7.637e-7
-0.596	-9.421e-5	-9.521e-7
-0.595	-9.391e-5	-1.140e-6
-0.594	-9.364e-5	-1.327e-6
-0.593	-9.335e-5	-1.514e-6
-0.592	-9.308e-5	-1.700e-6
-0.591	-9.281e-5	-1.886e-6
-0.590	-9.255e-5	-2.071e-6
-0.589	-9.229e-5	-2.255e-6
-0.588	-9.204e-5	-2.439e-6
-0.587	-9.179e-5	-2.623e-6
-0.586	-9.154e-5	-2.806e-6
-0.585	-9.129e-5	-2.989e-6
-0.584	-9.105e-5	-3.171e-6
-0.583	-9.081e-5	-3.352e-6
-0.582	-9.058e-5	-3.534e-6
-0.581	-9.035e-5	-3.714e-6
-0.580	-9.013e-5	-3.895e-6
-0.579	-8.991e-5	-4.074e-6
-0.578	-8.970e-5	-4.254e-6
-0.577	-8.948e-5	-4.433e-6
-0.576	-8.927e-5	-4.611e-6
-0.575	-8.905e-5	-4.789e-6
-0.574	-8.883e-5	-4.967e-6
-0.573	-8.862e-5	-5.144e-6
-0.572	-8.841e-5	-5.321e-6
-0.571	-8.820e-5	-5.497e-6
-0.570	-8.799e-5	-5.673e-6
-0.569	-8.779e-5	-5.849e-6
-0.568	-8.758e-5	-6.024e-6
-0.567	-8.738e-5	-6.199e-6
-0.566	-8.718e-5	-6.373e-6
-0.565	-8.698e-5	-6.547e-6
-0.564	-8.678e-5	-6.721e-6
-0.563	-8.658e-5	-6.894e-6
-0.562	-8.638e-5	-7.067e-6
-0.561	-8.619e-5	-7.239e-6
-0.560	-8.601e-5	-7.411e-6
-0.559	-8.582e-5	-7.583e-6
-0.558	-8.564e-5	-7.754e-6
-0.557	-8.545e-5	-7.925e-6
-0.556	-8.527e-5	-8.096e-6
-0.555	-8.508e-5	-8.266e-6
-0.554	-8.490e-5	-8.436e-6
-0.553	-8.471e-5	-8.605e-6
-0.552	-8.453e-5	-8.774e-6
-0.551	-8.435e-5	-8.943e-6
-0.550	-8.418e-5	-9.111e-6
-0.549	-8.401e-5	-9.279e-6
-0.548	-8.383e-5	-9.447e-6
-0.547	-8.366e-5	-9.614e-6
-0.546	-8.348e-5	-9.781e-6
-0.545	-8.330e-5	-9.948e-6
-0.544	-8.313e-5	-1.011e-5
-0.543	-8.295e-5	-1.028e-5
-0.542	-8.278e-5	-1.045e-5
-0.541	-8.260e-5	-1.061e-5
-0.540	-8.243e-5	-1.078e-5
-0.539	-8.226e-5	-1.094e-5
-0.538	-8.210e-5	-1.110e-5
-0.537	-8.194e-5	-1.127e-5
-0.536	-8.177e-5	-1.143e-5
-0.535	-8.160e-5	-1.159e-5
-0.534	-8.143e-5	-1.176e-5
-0.533	-8.126e-5	-1.192e-5
-0.532	-8.109e-5	-1.208e-5
-0.531	-8.093e-5	-1.224e-5
-0.530	-8.076e-5	-1.241e-5
-0.529	-8.059e-5	-1.257e-5
-0.528	-8.043e-5	-1.273e-5
-0.527	-8.027e-5	-1.289e-5
-0.526	-8.010e-5	-1.305e-5
-0.525	-7.994e-5	-1.321e-5
-0.524	-7.977e-5	-1.337e-5
-0.523	-7.961e-5	-1.353e-5
-0.522	-7.945e-5	-1.369e-5
-0.521	-7.928e-5	-1.384e-5
-0.520	-7.911e-5	-1.400e-5
-0.519	-7.894e-5	-1.416e-5
-0.518	-7.878e-5	-1.432e-5
-0.517	-7.863e-5	-1.448e-5
-0.516	-7.847e-5	-1.463e-5
-0.515	-7.831e-5	-1.479e-5
-0.514	-7.814e-5	-1.495e-5
-0.513	-7.797e-5	-1.510e-5
-0.512	-7.781e-5	-1.526e-5
-0.511	-7.764e-5	-1.541e-5
-0.510	-7.748e-5	-1.557e-5
-0.509	-7.731e-5	-1.572e-5
-0.508	-7.715e-5	-1.588e-5
-0.507	-7.699e-5	-1.603e-5
-0.506	-7.683e-5	-1.618e-5
-0.505	-7.667e-5	-1.634e-5
-0.504	-7.650e-5	-1.649e-5
-0.503	-7.633e-5	-1.664e-5
-0.502	-7.615e-5	-1.680e-5
-0.501	-7.598e-5	-1.695e-5
-0.500	-7.581e-5	-1.710e-5
-0.499	-7.563e-5	-1.725e-5
-0.498	-7.547e-5	-1.740e-5
-0.497	-7.530e-5	-1.755e-5
-0.496	-7.513e-5	-1.770e-5
-0.495	-7.496e-5	-1.785e-5
-0.494	-7.478e-5	-1.800e-5
-0.493	-7.460e-5	-1.815e-5
-0.492	-7.441e-5	-1.830e-5
-0.491	-7.423e-5	-1.845e-5
-0.490	-7.404e-5	-1.860e-5
-0.489	-7.386e-5	-1.874e-5
-0.488	-7.368e-5	-1.889e-5
-0.487	-7.349e-5	-1.904e-5
-0.486	-7.330e-5	-1.918e-5
-0.485	-7.310e-5	-1.933e-5
-0.484	-7.291e-5	-1.948e-5
-0.483	-7.271e-5	-1.962e-5
-0.482	-7.251e-5	-1.977e-5
-0.481	-7.230e-5	-1.991e-5
-0.480	-7.210e-5	-2.006e-5
-0.479	-7.189e-5	-2.020e-5
-0.478	-7.168e-5	-2.034e-5
-0.477	-7.146e-5	-2.049e-5
-0.476	-7.124e-5	-2.063e-5
-0.475	-7.102e-5	-2.077e-5
-0.474	-7.079e-5	-2.091e-5
-0.473	-7.055e-5	-2.105e-5
-0.472	-7.031e-5	-2.119e-5
-0.471	-7.007e-5	-2.133e-5
-0.470	-6.983e-5	-2.147e-5
-0.469	-6.959e-5	-2.161e-5
-0.468	-6.934e-5	-2.175e-5
-0.467	-6.909e-5	-2.189e-5
-0.466	-6.884e-5	-2.203e-5
-0.465	-6.857e-5	-2.216e-5
-0.464	-6.830e-5	-2.230e-5
-0.463	-6.802e-5	-2.244e-5
-0.462	-6.773e-5	-2.257e-5
-0.461	-6.744e-5	-2.271e-5
-0.460	-6.715e-5	-2.284e-5
-0.459	-6.685e-5	-2.298e-5
-0.458	-6.654e-5	-2.311e-5
-0.457	-6.622e-5	-2.324e-5
-0.456	-6.590e-5	-2.337e-5
-0.455	-6.557e-5	-2.350e-5
-0.454	-6.523e-5	-2.363e-5
-0.453	-6.489e-5	-2.376e-5
-0.452	-6.454e-5	-2.389e-5
-0.451	-6.417e-5	-2.402e-5
-0.450	-6.379e-5	-2.415e-5
-0.449	-6.341e-5	-2.428e-5
-0.448	-6.301e-5	-2.440e-5
-0.447	-6.260e-5	-2.453e-5
-0.446	-6.219e-5	-2.465e-5
-0.445	-6.178e-5	-2.477e-5
-0.444	-6.135e-5	-2.490e-5
-0.443	-6.091e-5	-2.502e-5
-0.442	-6.045e-5	-2.514e-5
-0.441	-5.997e-5	-2.526e-5
-0.440	-5.948e-5	-2.538e-5
-0.439	-5.898e-5	-2.550e-5
-0.438	-5.848e-5	-2.561e-5
-0.437	-5.796e-5	-2.573e-5
-0.436	-5.743e-5	-2.584e-5
-0.435	-5.688e-5	-2.596e-5
-0.434	-5.631e-5	-2.607e-5
-0.433	-5.572e-5	-2.618e-5
-0.432	-5.511e-5	-2.629e-5
-0.431	-5.449e-5	-2.640e-5
-0.430	-5.385e-5	-2.651e-5
-0.429	-5.319e-5	-2.662e-5
-0.428	-5.251e-5	-2.672e-5
-0.427	-5.182e-5	-2.682e-5
-0.426	-5.111e-5	-2.693e-5
-0.425	-5.038e-5	-2.703e-5
-0.424	-4.962e-5	-2.713e-5
-0.423	-4.884e-5	-2.722e-5
-0.422	-4.803e-5	-2.732e-5
-0.421	-4.720e-5	-2.741e-5
-0.420	-4.634e-5	-2.751e-5
-0.419	-4.547e-5	-2.760e-5
-0.418	-4.458e-5	-2.769e-5
-0.417	-4.366e-5	-2.777e-5
-0.416	-4.272e-5	-2.786e-5
-0.415	-4.174e-5	-2.794e-5
-0.414	-4.074e-5	-2.803e-5
-0.413	-3.970e-5	-2.810e-5
-0.412	-3.863e-5	-2.818e-5
-0.411	-3.752e-5	-2.826e-5
-0.410	-3.638e-5	-2.833e-5
-0.409	-3.520e-5	-2.840e-5
-0.408	-3.400e-5	-2.847e-5
-0.407	-3.278e-5	-2.853e-5
-0.406	-3.152e-5	-2.860e-5
-0.405	-3.023e-5	-2.866e-5
-0.404	-2.891e-5	-2.872e-5
-0.403	-2.756e-5	-2.877e-5
-0.402	-2.615e-5	-2.882e-5
-0.401	-2.469e-5	-2.887e-5
-0.400	-2.319e-5	-2.892e-5
-0.399	-2.166e-5	-2.896e-5
-0.398	-2.010e-5	-2.900e-5
-0.397	-1.852e-5	-2.904e-5
-0.396	-1.691e-5	-2.907e-5
-0.395	-1.525e-5	-2.910e-5
-0.394	-1.356e-5	-2.913e-5
-0.393	-1.181e-5	-2.915e-5
-0.392	-1.001e-5	-2.917e-5
-0.391	-8.146e-6	-2.919e-5
-0.390	-6.237e-6	-2.920e-5
-0.389	-4.302e-6	-2.921e-5
-0.388	-2.353e-6	-2.922e-5
-0.387	-3.746e-7	-2.922e-5
-0.386	1.641e-6	-2.921e-5
-0.385	3.696e-6	-2.921e-5
-0.384	5.793e-6	-2.919e-5
-0.383	7.928e-6	-2.918e-5
-0.382	1.011e-5	-2.916e-5
-0.381	1.235e-5	-2.913e-5
-0.380	1.464e-5	-2.910e-5
-0.379	1.696e-5	-2.907e-5
-0.378	1.929e-5	-2.903e-5
-0.377	2.163e-5	-2.899e-5
-0.376	2.400e-5	-2.894e-5
-0.375	2.640e-5	-2.889e-5
-0.374	2.882e-5	-2.883e-5
-0.373	3.129e-5	-2.877e-5
-0.372	3.378e-5	-2.870e-5
-0.371	3.631e-5	-2.863e-5
-0.370	3.888e-5	-2.855e-5
-0.369	4.146e-5	-2.847e-5
-0.368	4.403e-5	-2.838e-5
-0.367	4.659e-5	-2.829e-5
-0.366	4.916e-5	-2.819e-5
-0.365	5.173e-5	-2.808e-5
-0.364	5.432e-5	-2.798e-5
-0.363	5.691e-5	-2.786e-5
-0.362	5.951e-5	-2.774e-5
-0.361	6.213e-5	-2.762e-5
-0.360	6.476e-5	-2.749e-5
-0.359	6.737e-5	-2.735e-5
-0.358	6.995e-5	-2.721e-5
-0.357	7.251e-5	-2.707e-5
-0.356	7.504e-5	-2.692e-5
-0.355	7.753e-5	-2.676e-5
-0.354	8.000e-5	-2.660e-5
-0.353	8.245e-5	-2.644e-5
-0.352	8.489e-5	-2.627e-5
-0.351	8.733e-5	-2.609e-5
-0.350	8.974e-5	-2.591e-5
-0.349	9.210e-5	-2.573e-5
-0.348	9.438e-5	-2.554e-5
-0.347	9.661e-5	-2.535e-5
-0.346	9.880e-5	-2.515e-5
-0.345	1.009e-4	-2.495e-5
-0.344	1.030e-4	-2.474e-5
-0.343	1.051e-4	-2.453e-5
-0.342	1.071e-4	-2.432e-5
-0.341	1.090e-4	-2.410e-5
-0.340	1.109e-4	-2.388e-5
-0.339	1.128e-4	-2.365e-5
-0.338	1.145e-4	-2.342e-5
-0.337	1.162e-4	-2.319e-5
-0.336	1.178e-4	-2.296e-5
-0.335	1.194e-4	-2.272e-5
-0.334	1.209e-4	-2.248e-5
-0.333	1.223e-4	-2.223e-5
-0.332	1.237e-4	-2.198e-5
-0.331	1.250e-4	-2.173e-5
-0.330	1.263e-4	-2.148e-5
-0.329	1.275e-4	-2.123e-5
-0.328	1.286e-4	-2.097e-5
-0.327	1.296e-4	-2.071e-5
-0.326	1.305e-4	-2.045e-5
-0.325	1.314e-4	-2.019e-5
-0.324	1.323e-4	-1.992e-5
-0.323	1.330e-4	-1.966e-5
-0.322	1.338e-4	-1.939e-5
-0.321	1.344e-4	-1.912e-5
-0.320	1.351e-4	-1.885e-5
-0.319	1.356e-4	-1.858e-5
-0.318	1.361e-4	-1.831e-5
-0.317	1.365e-4	-1.803e-5
-0.316	1.369e-4	-1.776e-5
-0.315	1.372e-4	-1.748e-5
-0.314	1.375e-4	-1.721e-5
-0.313	1.377e-4	-1.693e-5
-0.312	1.378e-4	-1.666e-5
-0.311	1.380e-4	-1.638e-5
-0.310	1.381e-4	-1.611e-5
-0.309	1.382e-4	-1.583e-5
-0.308	1.382e-4	-1.555e-5
-0.307	1.382e-4	-1.528e-5
-0.306	1.381e-4	-1.500e-5
-0.305	1.380e-4	-1.473e-5
-0.304	1.378e-4	-1.445e-5
-0.303	1.376e-4	-1.417e-5
-0.302	1.374e-4	-1.390e-5
-0.301	1.372e-4	-1.363e-5
-0.300	1.370e-4	-1.335e-5
-0.299	1.367e-4	-1.308e-5
-0.298	1.364e-4	-1.280e-5
-0.297	1.361e-4	-1.253e-5
-0.296	1.358e-4	-1.226e-5
-0.295	1.354e-4	-1.199e-5
-0.294	1.350e-4	-1.172e-5
-0.293	1.346e-4	-1.145e-5
-0.292	1.342e-4	-1.118e-5
-0.291	1.338e-4	-1.091e-5
-0.290	1.334e-4	-1.065e-5
-0.289	1.330e-4	-1.038e-5
-0.288	1.326e-4	-1.012e-5
-0.287	1.321e-4	-9.853e-6
-0.286	1.316e-4	-9.589e-6
-0.285	1.312e-4	-9.327e-6
-0.284	1.307e-4	-9.065e-6
-0.283	1.302e-4	-8.805e-6
-0.282	1.298e-4	-8.545e-6
-0.281	1.293e-4	-8.287e-6
-0.280	1.288e-4	-8.029e-6
-0.279	1.284e-4	-7.772e-6
-0.278	1.279e-4	-7.517e-6
-0.277	1.274e-4	-7.262e-6
-0.276	1.269e-4	-7.008e-6
-0.275	1.265e-4	-6.755e-6
-0.274	1.260e-4	-6.503e-6
-0.273	1.255e-4	-6.252e-6
-0.272	1.251e-4	-6.002e-6
-0.271	1.246e-4	-5.753e-6
-0.270	1.242e-4	-5.504e-6
-0.269	1.237e-4	-5.257e-6
-0.268	1.233e-4	-5.010e-6
-0.267	1.228e-4	-4.765e-6
-0.266	1.224e-4	-4.520e-6
-0.265	1.220e-4	-4.276e-6
-0.264	1.215e-4	-4.033e-6
-0.263	1.211e-4	-3.791e-6
-0.262	1.207e-4	-3.549e-6
-0.261	1.203e-4	-3.309e-6
-0.260	1.199e-4	-3.069e-6
-0.259	1.195e-4	-2.830e-6
-0.258	1.191e-4	-2.592e-6
-0.257	1.187e-4	-2.355e-6
-0.256	1.183e-4	-2.118e-6
-0.255	1.180e-4	-1.882e-6
-0.254	1.176e-4	-1.647e-6
-0.253	1.172e-4	-1.412e-6
-0.252	1.169e-4	-1.179e-6
-0.251	1.165e-4	-9.457e-7
-0.250	1.162e-4	-7.133e-7
-0.249	1.159e-4	-4.816e-7
-0.248	1.155e-4	-2.505e-7
-0.247	1.152e-4	-2.013e-8
-0.246	1.149e-4	2.096e-7
-0.245	1.146e-4	4.387e-7
-0.244	1.143e-4	6.672e-7
-0.243	1.140e-4	8.952e-7
-0.242	1.137e-4	1.122e-6
-0.241	1.134e-4	1.349e-6
-0.240	1.131e-4	1.575e-6
-0.239	1.128e-4	1.801e-6
-0.238	1.125e-4	2.026e-6
-0.237	1.122e-4	2.251e-6
-0.236	1.120e-4	2.475e-6
-0.235	1.117e-4	2.698e-6
-0.234	1.114e-4	2.921e-6
-0.233	1.112e-4	3.143e-6
-0.232	1.109e-4	3.365e-6
-0.231	1.107e-4	3.586e-6
-0.230	1.104e-4	3.807e-6
-0.229	1.101e-4	4.027e-6
-0.228	1.099e-4	4.247e-6
-0.227	1.096e-4	4.466e-6
-0.226	1.094e-4	4.685e-6
-0.225	1.091e-4	4.904e-6
-0.224	1.089e-4	5.121e-6
-0.223	1.086e-4	5.339e-6
-0.222	1.084e-4	5.555e-6
-0.221	1.082e-4	5.772e-6
-0.220	1.079e-4	5.988e-6
-0.219	1.077e-4	6.203e-6
-0.218	1.075e-4	6.418e-6
-0.217	1.072e-4	6.632e-6
-0.216	1.070e-4	6.846e-6
-0.215	1.067e-4	7.060e-6
-0.214	1.065e-4	7.273e-6
-0.213	1.062e-4	7.485e-6
-0.212	1.060e-4	7.697e-6
-0.211	1.057e-4	7.908e-6
-0.210	1.055e-4	8.119e-6
-0.209	1.052e-4	8.330e-6
-0.208	1.050e-4	8.540e-6
-0.207	1.047e-4	8.749e-6
-0.206	1.045e-4	8.958e-6
-0.205	1.042e-4	9.167e-6
-0.204	1.040e-4	9.375e-6
-0.203	1.037e-4	9.582e-6
-0.202	1.035e-4	9.789e-6
-0.201	1.032e-4	9.995e-6
-0.200	1.029e-4	1.020e-5
-0.199	1.027e-4	1.041e-5
-0.198	1.024e-4	1.061e-5
-0.197	1.021e-4	1.082e-5
-0.196	1.019e-4	1.102e-5
-0.195	1.016e-4	1.122e-5
-0.194	1.013e-4	1.143e-5
-0.193	1.010e-4	1.163e-5
-0.192	1.008e-4	1.183e-5
-0.191	1.005e-4	1.203e-5
-0.190	1.002e-4	1.223e-5
-0.189	9.995e-5	1.243e-5
-0.188	9.966e-5	1.263e-5
-0.187	9.938e-5	1.283e-5
-0.186	9.908e-5	1.303e-5
-0.185	9.879e-5	1.322e-5
-0.184	9.850e-5	1.342e-5
-0.183	9.820e-5	1.362e-5
-0.182	9.791e-5	1.381e-5
-0.181	9.762e-5	1.401e-5
-0.180	9.733e-5	1.420e-5
-0.179	9.704e-5	1.440e-5
-0.178	9.673e-5	1.459e-5
-0.177	9.643e-5	1.478e-5
-0.176	9.612e-5	1.498e-5
-0.175	9.582e-5	1.517e-5
-0.174	9.551e-5	1.536e-5
-0.173	9.521e-5	1.555e-5
-0.172	9.490e-5	1.574e-5
-0.171	9.460e-5	1.593e-5
-0.170	9.429e-5	1.612e-5
-0.169	9.398e-5	1.630e-5
-0.168	9.366e-5	1.649e-5
-0.167	9.334e-5	1.668e-5
-0.166	9.303e-5	1.686e-5
-0.165	9.271e-5	1.705e-5
-0.164	9.240e-5	1.723e-5
-0.163	9.208e-5	1.742e-5
-0.162	9.177e-5	1.760e-5
-0.161	9.145e-5	1.779e-5
-0.160	9.114e-5	1.797e-5
-0.159	9.082e-5	1.815e-5
-0.158	9.050e-5	1.833e-5
-0.157	9.018e-5	1.851e-5
-0.156	8.986e-5	1.869e-5
-0.155	8.954e-5	1.887e-5
-0.154	8.923e-5	1.905e-5
-0.153	8.891e-5	1.923e-5
-0.152	8.860e-5	1.940e-5
-0.151	8.828e-5	1.958e-5
-0.150	8.797e-5	1.976e-5
-0.149	8.766e-5	1.993e-5
-0.148	8.735e-5	2.011e-5
-0.147	8.703e-5	2.028e-5
-0.146	8.671e-5	2.045e-5
-0.145	8.640e-5	2.063e-5
-0.144	8.609e-5	2.080e-5
-0.143	8.579e-5	2.097e-5
-0.142	8.548e-5	2.114e-5
-0.141	8.517e-5	2.131e-5
-0.140	8.487e-5	2.148e-5
-0.139	8.458e-5	2.165e-5
-0.138	8.428e-5	2.182e-5
-0.137	8.398e-5	2.199e-5
-0.136	8.369e-5	2.215e-5
-0.135	8.339e-5	2.232e-5
-0.134	8.309e-5	2.249e-5
-0.133	8.281e-5	2.265e-5
-0.132	8.253e-5	2.282e-5
-0.131	8.226e-5	2.298e-5
-0.130	8.198e-5	2.315e-5
-0.129	8.170e-5	2.331e-5
-0.128	8.142e-5	2.347e-5
-0.127	8.115e-5	2.363e-5
-0.126	8.087e-5	2.380e-5
-0.125	8.061e-5	2.396e-5
-0.124	8.035e-5	2.412e-5
-0.123	8.010e-5	2.428e-5
-0.122	7.985e-5	2.444e-5
-0.121	7.960e-5	2.460e-5
-0.120	7.935e-5	2.476e-5
-0.119	7.909e-5	2.491e-5
-0.118	7.884e-5	2.507e-5
-0.117	7.859e-5	2.523e-5
-0.116	7.835e-5	2.539e-5
-0.115	7.811e-5	2.554e-5
-0.114	7.787e-5	2.570e-5
-0.113	7.764e-5	2.585e-5
-0.112	7.741e-5	2.601e-5
-0.111	7.719e-5	2.616e-5
-0.110	7.696e-5	2.632e-5
-0.109	7.674e-5	2.647e-5
-0.108	7.651e-5	2.662e-5
-0.107	7.628e-5	2.677e-5
-0.106	7.606e-5	2.693e-5
-0.105	7.584e-5	2.708e-5
-0.104	7.562e-5	2.723e-5
-0.103	7.540e-5	2.738e-5
-0.102	7.519e-5	2.753e-5
-0.101	7.497e-5	2.768e-5
-0.100	7.476e-5	2.783e-5
-0.099	7.454e-5	2.798e-5
-0.098	7.431e-5	2.813e-5
-0.097	7.408e-5	2.828e-5
-0.096	7.386e-5	2.842e-5
-0.095	7.364e-5	2.857e-5
-0.094	7.342e-5	2.872e-5
-0.093	7.320e-5	2.886e-5
-0.092	7.298e-5	2.901e-5
-0.091	7.275e-5	2.916e-5
-0.090	7.252e-5	2.930e-5
-0.089	7.229e-5	2.945e-5
-0.088	7.206e-5	2.959e-5
-0.087	7.183e-5	2.973e-5
-0.086	7.160e-5	2.988e-5
-0.085	7.137e-5	3.002e-5
-0.084	7.114e-5	3.016e-5
-0.083	7.091e-5	3.030e-5
-0.082	7.068e-5	3.044e-5
-0.081	7.044e-5	3.059e-5
-0.080	7.020e-5	3.073e-5
-0.079	6.995e-5	3.087e-5
-0.078	6.971e-5	3.101e-5
-0.077	6.947e-5	3.114e-5
-0.076	6.923e-5	3.128e-5
-0.075	6.899e-5	3.142e-5
-0.074	6.876e-5	3.156e-5
-0.073	6.853e-5	3.170e-5
-0.072	6.830e-5	3.183e-5
-0.071	6.806e-5	3.197e-5
-0.070	6.782e-5	3.210e-5
-0.069	6.758e-5	3.224e-5
-0.068	6.734e-5	3.237e-5
-0.067	6.710e-5	3.251e-5
-0.066	6.686e-5	3.264e-5
-0.065	6.664e-5	3.277e-5
-0.064	6.641e-5	3.291e-5
-0.063	6.619e-5	3.304e-5
-0.062	6.596e-5	3.317e-5
-0.061	6.574e-5	3.330e-5
-0.060	6.551e-5	3.343e-5
-0.059	6.528e-5	3.357e-5
-0.058	6.505e-5	3.370e-5
-0.057	6.482e-5	3.382e-5
-0.056	6.460e-5	3.395e-5
-0.055	6.437e-5	3.408e-5
-0.054	6.415e-5	3.421e-5
-0.053	6.393e-5	3.434e-5
-0.052	6.372e-5	3.447e-5
-0.051	6.350e-5	3.459e-5
-0.050	6.330e-5	3.472e-5
-0.049	6.309e-5	3.485e-5
-0.048	6.287e-5	3.497e-5
-0.047	6.265e-5	3.510e-5
-0.046	6.243e-5	3.522e-5
-0.045	6.222e-5	3.535e-5
-0.044	6.202e-5	3.547e-5
-0.043	6.182e-5	3.559e-5
-0.042	6.162e-5	3.572e-5
-0.041	6.142e-5	3.584e-5
-0.040	6.122e-5	3.596e-5
-0.039	6.102e-5	3.608e-5
-0.038	6.082e-5	3.621e-5
-0.037	6.062e-5	3.633e-5
-0.036	6.042e-5	3.645e-5
-0.035	6.023e-5	3.657e-5
-0.034	6.004e-5	3.669e-5
-0.033	5.986e-5	3.681e-5
-0.032	5.968e-5	3.693e-5
-0.031	5.949e-5	3.705e-5
-0.030	5.931e-5	3.717e-5
-0.029	5.912e-5	3.728e-5
-0.028	5.894e-5	3.740e-5
-0.027	5.876e-5	3.752e-5
-0.026	5.858e-5	3.764e-5
-0.025	5.840e-5	3.775e-5
-0.024	5.822e-5	3.787e-5
-0.023	5.804e-5	3.799e-5
-0.022	5.787e-5	3.810e-5
-0.021	5.770e-5	3.822e-5
-0.020	5.752e-5	3.833e-5
-0.019	5.735e-5	3.845e-5
-0.018	5.717e-5	3.856e-5
-0.017	5.700e-5	3.868e-5
-0.016	5.684e-5	3.879e-5
-0.015	5.668e-5	3.890e-5
-0.014	5.652e-5	3.902e-5
-0.013	5.636e-5	3.913e-5
-0.012	5.620e-5	3.924e-5
-0.011	5.604e-5	3.935e-5
-0.010	5.587e-5	3.946e-5
-0.009	5.571e-5	3.958e-5
-0.008	5.555e-5	3.969e-5
-0.007	5.540e-5	3.980e-5
-0.006	5.525e-5	3.991e-5
-0.005	5.509e-5	4.002e-5
-0.004	5.494e-5	4.013e-5
-0.003	5.479e-5	4.024e-5
-0.002	5.463e-5	4.035e-5
-0.001	5.448e-5	4.046e-5
