Nov. 4, 2019   15:04:08
Cyclic Voltammetry
File: e:\data_thesis\4-11-2019\cv_2,3-dsqui_1m_kcl_10mm_hcl_scan_rates_002.txt
Data Source:  Experiment
Instrument Model:  CHI760E
Data Proc:  Smoothing
Header: 
Note: 

Init E (V) = 0
High E (V) = 0
Low E (V) = -0.6
Init P/N = N
Scan Rate (V/s) = 0.025
Segment = 6
Sample Interval (V) = 0.001
Quiet Time (sec) = 2
Sensitivity (A/V) = 1e-5

Segment 1:
Ep = -0.373V
Eh = -0.318V
ip = -4.963e-5A

Segment 2:
Ep = -0.307V
Eh = -0.367V
ip = 4.150e-5A

Segment 3:
Ep = -0.373V
Eh = -0.317V
ip = -4.828e-5A

Segment 4:
Ep = -0.307V
Eh = -0.367V
ip = 4.148e-5A

Segment 5:
Ep = -0.373V
Eh = -0.317V
ip = -4.825e-5A

Segment 6:
Ep = -0.307V
Eh = -0.367V
ip = 4.146e-5A

Potential/V	Current/A

0.000	1.511e-7	6.043e-9
-0.001	1.227e-7	1.095e-8
-0.002	9.965e-8	1.494e-8
-0.003	8.196e-8	1.821e-8
-0.004	7.160e-8	2.108e-8
-0.005	6.455e-8	2.366e-8
-0.006	5.840e-8	2.600e-8
-0.007	5.135e-8	2.805e-8
-0.008	4.507e-8	2.985e-8
-0.009	3.917e-8	3.142e-8
-0.010	3.370e-8	3.277e-8
-0.011	2.841e-8	3.390e-8
-0.012	2.329e-8	3.484e-8
-0.013	1.840e-8	3.557e-8
-0.014	1.365e-8	3.612e-8
-0.015	9.129e-9	3.648e-8
-0.016	4.846e-9	3.668e-8
-0.017	5.916e-10	3.670e-8
-0.018	-3.509e-9	3.656e-8
-0.019	-7.533e-9	3.626e-8
-0.020	-1.147e-8	3.580e-8
-0.021	-1.522e-8	3.519e-8
-0.022	-1.891e-8	3.444e-8
-0.023	-2.259e-8	3.353e-8
-0.024	-2.624e-8	3.248e-8
-0.025	-2.992e-8	3.129e-8
-0.026	-3.344e-8	2.995e-8
-0.027	-3.681e-8	2.848e-8
-0.028	-4.009e-8	2.687e-8
-0.029	-4.327e-8	2.514e-8
-0.030	-4.647e-8	2.328e-8
-0.031	-4.967e-8	2.130e-8
-0.032	-5.279e-8	1.918e-8
-0.033	-5.590e-8	1.695e-8
-0.034	-5.893e-8	1.459e-8
-0.035	-6.191e-8	1.211e-8
-0.036	-6.487e-8	9.520e-9
-0.037	-6.775e-8	6.810e-9
-0.038	-7.059e-8	3.986e-9
-0.039	-7.341e-8	1.050e-9
-0.040	-7.622e-8	-1.999e-9
-0.041	-7.909e-8	-5.163e-9
-0.042	-8.195e-8	-8.440e-9
-0.043	-8.480e-8	-1.183e-8
-0.044	-8.764e-8	-1.534e-8
-0.045	-9.040e-8	-1.895e-8
-0.046	-9.317e-8	-2.268e-8
-0.047	-9.591e-8	-2.652e-8
-0.048	-9.863e-8	-3.046e-8
-0.049	-1.014e-7	-3.452e-8
-0.050	-1.042e-7	-3.869e-8
-0.051	-1.070e-7	-4.296e-8
-0.052	-1.098e-7	-4.736e-8
-0.053	-1.126e-7	-5.186e-8
-0.054	-1.155e-7	-5.648e-8
-0.055	-1.183e-7	-6.121e-8
-0.056	-1.211e-7	-6.606e-8
-0.057	-1.239e-7	-7.101e-8
-0.058	-1.268e-7	-7.608e-8
-0.059	-1.297e-7	-8.127e-8
-0.060	-1.326e-7	-8.658e-8
-0.061	-1.356e-7	-9.200e-8
-0.062	-1.387e-7	-9.755e-8
-0.063	-1.418e-7	-1.032e-7
-0.064	-1.449e-7	-1.090e-7
-0.065	-1.482e-7	-1.149e-7
-0.066	-1.515e-7	-1.210e-7
-0.067	-1.549e-7	-1.272e-7
-0.068	-1.583e-7	-1.335e-7
-0.069	-1.619e-7	-1.400e-7
-0.070	-1.656e-7	-1.466e-7
-0.071	-1.694e-7	-1.534e-7
-0.072	-1.732e-7	-1.603e-7
-0.073	-1.771e-7	-1.674e-7
-0.074	-1.811e-7	-1.747e-7
-0.075	-1.852e-7	-1.821e-7
-0.076	-1.894e-7	-1.896e-7
-0.077	-1.938e-7	-1.974e-7
-0.078	-1.983e-7	-2.053e-7
-0.079	-2.031e-7	-2.135e-7
-0.080	-2.079e-7	-2.218e-7
-0.081	-2.129e-7	-2.303e-7
-0.082	-2.180e-7	-2.390e-7
-0.083	-2.233e-7	-2.479e-7
-0.084	-2.286e-7	-2.571e-7
-0.085	-2.341e-7	-2.665e-7
-0.086	-2.398e-7	-2.760e-7
-0.087	-2.457e-7	-2.859e-7
-0.088	-2.518e-7	-2.959e-7
-0.089	-2.580e-7	-3.063e-7
-0.090	-2.643e-7	-3.168e-7
-0.091	-2.706e-7	-3.277e-7
-0.092	-2.771e-7	-3.387e-7
-0.093	-2.837e-7	-3.501e-7
-0.094	-2.904e-7	-3.617e-7
-0.095	-2.971e-7	-3.736e-7
-0.096	-3.038e-7	-3.857e-7
-0.097	-3.105e-7	-3.982e-7
-0.098	-3.171e-7	-4.108e-7
-0.099	-3.237e-7	-4.238e-7
-0.100	-3.304e-7	-4.370e-7
-0.101	-3.370e-7	-4.505e-7
-0.102	-3.437e-7	-4.642e-7
-0.103	-3.502e-7	-4.782e-7
-0.104	-3.563e-7	-4.925e-7
-0.105	-3.623e-7	-5.070e-7
-0.106	-3.681e-7	-5.217e-7
-0.107	-3.738e-7	-5.367e-7
-0.108	-3.795e-7	-5.518e-7
-0.109	-3.849e-7	-5.672e-7
-0.110	-3.900e-7	-5.828e-7
-0.111	-3.949e-7	-5.986e-7
-0.112	-3.995e-7	-6.146e-7
-0.113	-4.040e-7	-6.308e-7
-0.114	-4.083e-7	-6.471e-7
-0.115	-4.123e-7	-6.636e-7
-0.116	-4.160e-7	-6.802e-7
-0.117	-4.195e-7	-6.970e-7
-0.118	-4.227e-7	-7.139e-7
-0.119	-4.258e-7	-7.310e-7
-0.120	-4.287e-7	-7.481e-7
-0.121	-4.315e-7	-7.654e-7
-0.122	-4.340e-7	-7.827e-7
-0.123	-4.364e-7	-8.002e-7
-0.124	-4.387e-7	-8.177e-7
-0.125	-4.408e-7	-8.354e-7
-0.126	-4.428e-7	-8.531e-7
-0.127	-4.448e-7	-8.709e-7
-0.128	-4.466e-7	-8.887e-7
-0.129	-4.485e-7	-9.067e-7
-0.130	-4.503e-7	-9.247e-7
-0.131	-4.521e-7	-9.428e-7
-0.132	-4.540e-7	-9.609e-7
-0.133	-4.559e-7	-9.792e-7
-0.134	-4.577e-7	-9.975e-7
-0.135	-4.596e-7	-1.016e-6
-0.136	-4.614e-7	-1.034e-6
-0.137	-4.633e-7	-1.053e-6
-0.138	-4.653e-7	-1.071e-6
-0.139	-4.674e-7	-1.090e-6
-0.140	-4.696e-7	-1.109e-6
-0.141	-4.719e-7	-1.128e-6
-0.142	-4.743e-7	-1.147e-6
-0.143	-4.768e-7	-1.166e-6
-0.144	-4.795e-7	-1.185e-6
-0.145	-4.825e-7	-1.204e-6
-0.146	-4.856e-7	-1.224e-6
-0.147	-4.888e-7	-1.243e-6
-0.148	-4.920e-7	-1.263e-6
-0.149	-4.954e-7	-1.283e-6
-0.150	-4.990e-7	-1.303e-6
-0.151	-5.029e-7	-1.323e-6
-0.152	-5.071e-7	-1.343e-6
-0.153	-5.115e-7	-1.364e-6
-0.154	-5.159e-7	-1.384e-6
-0.155	-5.206e-7	-1.405e-6
-0.156	-5.254e-7	-1.426e-6
-0.157	-5.305e-7	-1.447e-6
-0.158	-5.360e-7	-1.469e-6
-0.159	-5.416e-7	-1.490e-6
-0.160	-5.475e-7	-1.512e-6
-0.161	-5.537e-7	-1.534e-6
-0.162	-5.601e-7	-1.557e-6
-0.163	-5.668e-7	-1.580e-6
-0.164	-5.738e-7	-1.603e-6
-0.165	-5.811e-7	-1.626e-6
-0.166	-5.886e-7	-1.649e-6
-0.167	-5.965e-7	-1.673e-6
-0.168	-6.046e-7	-1.697e-6
-0.169	-6.131e-7	-1.722e-6
-0.170	-6.218e-7	-1.747e-6
-0.171	-6.310e-7	-1.772e-6
-0.172	-6.406e-7	-1.798e-6
-0.173	-6.506e-7	-1.824e-6
-0.174	-6.611e-7	-1.850e-6
-0.175	-6.720e-7	-1.877e-6
-0.176	-6.832e-7	-1.904e-6
-0.177	-6.949e-7	-1.932e-6
-0.178	-7.070e-7	-1.960e-6
-0.179	-7.195e-7	-1.989e-6
-0.180	-7.325e-7	-2.018e-6
-0.181	-7.460e-7	-2.048e-6
-0.182	-7.602e-7	-2.079e-6
-0.183	-7.748e-7	-2.110e-6
-0.184	-7.900e-7	-2.141e-6
-0.185	-8.059e-7	-2.174e-6
-0.186	-8.224e-7	-2.206e-6
-0.187	-8.395e-7	-2.240e-6
-0.188	-8.572e-7	-2.274e-6
-0.189	-8.755e-7	-2.309e-6
-0.190	-8.945e-7	-2.345e-6
-0.191	-9.142e-7	-2.382e-6
-0.192	-9.345e-7	-2.419e-6
-0.193	-9.556e-7	-2.457e-6
-0.194	-9.773e-7	-2.496e-6
-0.195	-9.998e-7	-2.536e-6
-0.196	-1.023e-6	-2.577e-6
-0.197	-1.047e-6	-2.619e-6
-0.198	-1.073e-6	-2.662e-6
-0.199	-1.099e-6	-2.706e-6
-0.200	-1.126e-6	-2.751e-6
-0.201	-1.154e-6	-2.797e-6
-0.202	-1.182e-6	-2.845e-6
-0.203	-1.212e-6	-2.893e-6
-0.204	-1.243e-6	-2.943e-6
-0.205	-1.274e-6	-2.994e-6
-0.206	-1.308e-6	-3.046e-6
-0.207	-1.342e-6	-3.100e-6
-0.208	-1.378e-6	-3.155e-6
-0.209	-1.415e-6	-3.211e-6
-0.210	-1.453e-6	-3.269e-6
-0.211	-1.493e-6	-3.329e-6
-0.212	-1.533e-6	-3.391e-6
-0.213	-1.576e-6	-3.454e-6
-0.214	-1.620e-6	-3.518e-6
-0.215	-1.665e-6	-3.585e-6
-0.216	-1.711e-6	-3.653e-6
-0.217	-1.760e-6	-3.724e-6
-0.218	-1.809e-6	-3.796e-6
-0.219	-1.860e-6	-3.871e-6
-0.220	-1.913e-6	-3.947e-6
-0.221	-1.968e-6	-4.026e-6
-0.222	-2.024e-6	-4.107e-6
-0.223	-2.082e-6	-4.190e-6
-0.224	-2.142e-6	-4.276e-6
-0.225	-2.204e-6	-4.364e-6
-0.226	-2.267e-6	-4.455e-6
-0.227	-2.333e-6	-4.548e-6
-0.228	-2.400e-6	-4.644e-6
-0.229	-2.470e-6	-4.743e-6
-0.230	-2.542e-6	-4.844e-6
-0.231	-2.616e-6	-4.949e-6
-0.232	-2.692e-6	-5.057e-6
-0.233	-2.770e-6	-5.167e-6
-0.234	-2.850e-6	-5.281e-6
-0.235	-2.933e-6	-5.399e-6
-0.236	-3.019e-6	-5.519e-6
-0.237	-3.107e-6	-5.644e-6
-0.238	-3.198e-6	-5.772e-6
-0.239	-3.291e-6	-5.903e-6
-0.240	-3.388e-6	-6.039e-6
-0.241	-3.487e-6	-6.178e-6
-0.242	-3.589e-6	-6.322e-6
-0.243	-3.694e-6	-6.470e-6
-0.244	-3.802e-6	-6.622e-6
-0.245	-3.913e-6	-6.778e-6
-0.246	-4.028e-6	-6.939e-6
-0.247	-4.146e-6	-7.105e-6
-0.248	-4.268e-6	-7.276e-6
-0.249	-4.393e-6	-7.452e-6
-0.250	-4.523e-6	-7.633e-6
-0.251	-4.656e-6	-7.819e-6
-0.252	-4.793e-6	-8.010e-6
-0.253	-4.935e-6	-8.208e-6
-0.254	-5.082e-6	-8.411e-6
-0.255	-5.233e-6	-8.620e-6
-0.256	-5.389e-6	-8.836e-6
-0.257	-5.550e-6	-9.058e-6
-0.258	-5.715e-6	-9.287e-6
-0.259	-5.886e-6	-9.522e-6
-0.260	-6.062e-6	-9.765e-6
-0.261	-6.244e-6	-1.001e-5
-0.262	-6.432e-6	-1.027e-5
-0.263	-6.627e-6	-1.054e-5
-0.264	-6.828e-6	-1.081e-5
-0.265	-7.035e-6	-1.109e-5
-0.266	-7.250e-6	-1.138e-5
-0.267	-7.471e-6	-1.168e-5
-0.268	-7.700e-6	-1.199e-5
-0.269	-7.937e-6	-1.231e-5
-0.270	-8.183e-6	-1.263e-5
-0.271	-8.436e-6	-1.297e-5
-0.272	-8.697e-6	-1.332e-5
-0.273	-8.968e-6	-1.368e-5
-0.274	-9.248e-6	-1.405e-5
-0.275	-9.538e-6	-1.443e-5
-0.276	-9.838e-6	-1.482e-5
-0.277	-1.015e-5	-1.523e-5
-0.278	-1.047e-5	-1.565e-5
-0.279	-1.080e-5	-1.608e-5
-0.280	-1.114e-5	-1.652e-5
-0.281	-1.149e-5	-1.698e-5
-0.282	-1.186e-5	-1.746e-5
-0.283	-1.224e-5	-1.795e-5
-0.284	-1.262e-5	-1.845e-5
-0.285	-1.303e-5	-1.897e-5
-0.286	-1.344e-5	-1.951e-5
-0.287	-1.387e-5	-2.007e-5
-0.288	-1.431e-5	-2.064e-5
-0.289	-1.476e-5	-2.123e-5
-0.290	-1.523e-5	-2.184e-5
-0.291	-1.571e-5	-2.247e-5
-0.292	-1.620e-5	-2.311e-5
-0.293	-1.670e-5	-2.378e-5
-0.294	-1.722e-5	-2.447e-5
-0.295	-1.776e-5	-2.518e-5
-0.296	-1.830e-5	-2.591e-5
-0.297	-1.886e-5	-2.667e-5
-0.298	-1.943e-5	-2.744e-5
-0.299	-2.001e-5	-2.825e-5
-0.300	-2.061e-5	-2.907e-5
-0.301	-2.122e-5	-2.992e-5
-0.302	-2.184e-5	-3.079e-5
-0.303	-2.247e-5	-3.169e-5
-0.304	-2.311e-5	-3.262e-5
-0.305	-2.376e-5	-3.357e-5
-0.306	-2.443e-5	-3.454e-5
-0.307	-2.510e-5	-3.555e-5
-0.308	-2.578e-5	-3.658e-5
-0.309	-2.647e-5	-3.764e-5
-0.310	-2.716e-5	-3.872e-5
-0.311	-2.787e-5	-3.984e-5
-0.312	-2.857e-5	-4.098e-5
-0.313	-2.929e-5	-4.215e-5
-0.314	-3.001e-5	-4.335e-5
-0.315	-3.074e-5	-4.458e-5
-0.316	-3.147e-5	-4.584e-5
-0.317	-3.220e-5	-4.713e-5
-0.318	-3.294e-5	-4.845e-5
-0.319	-3.368e-5	-4.979e-5
-0.320	-3.443e-5	-5.117e-5
-0.321	-3.518e-5	-5.258e-5
-0.322	-3.592e-5	-5.402e-5
-0.323	-3.667e-5	-5.548e-5
-0.324	-3.742e-5	-5.698e-5
-0.325	-3.818e-5	-5.851e-5
-0.326	-3.893e-5	-6.006e-5
-0.327	-3.968e-5	-6.165e-5
-0.328	-4.043e-5	-6.327e-5
-0.329	-4.117e-5	-6.491e-5
-0.330	-4.192e-5	-6.659e-5
-0.331	-4.265e-5	-6.830e-5
-0.332	-4.339e-5	-7.003e-5
-0.333	-4.412e-5	-7.180e-5
-0.334	-4.484e-5	-7.359e-5
-0.335	-4.556e-5	-7.541e-5
-0.336	-4.626e-5	-7.726e-5
-0.337	-4.697e-5	-7.914e-5
-0.338	-4.766e-5	-8.105e-5
-0.339	-4.835e-5	-8.298e-5
-0.340	-4.903e-5	-8.494e-5
-0.341	-4.969e-5	-8.693e-5
-0.342	-5.034e-5	-8.895e-5
-0.343	-5.098e-5	-9.099e-5
-0.344	-5.161e-5	-9.305e-5
-0.345	-5.222e-5	-9.514e-5
-0.346	-5.282e-5	-9.725e-5
-0.347	-5.340e-5	-9.939e-5
-0.348	-5.396e-5	-1.015e-4
-0.349	-5.451e-5	-1.037e-4
-0.350	-5.504e-5	-1.059e-4
-0.351	-5.555e-5	-1.081e-4
-0.352	-5.604e-5	-1.104e-4
-0.353	-5.651e-5	-1.127e-4
-0.354	-5.696e-5	-1.149e-4
-0.355	-5.738e-5	-1.172e-4
-0.356	-5.779e-5	-1.195e-4
-0.357	-5.817e-5	-1.219e-4
-0.358	-5.854e-5	-1.242e-4
-0.359	-5.888e-5	-1.266e-4
-0.360	-5.919e-5	-1.289e-4
-0.361	-5.948e-5	-1.313e-4
-0.362	-5.974e-5	-1.337e-4
-0.363	-5.998e-5	-1.361e-4
-0.364	-6.020e-5	-1.385e-4
-0.365	-6.040e-5	-1.409e-4
-0.366	-6.057e-5	-1.433e-4
-0.367	-6.071e-5	-1.458e-4
-0.368	-6.084e-5	-1.482e-4
-0.369	-6.094e-5	-1.506e-4
-0.370	-6.101e-5	-1.531e-4
-0.371	-6.107e-5	-1.555e-4
-0.372	-6.109e-5	-1.580e-4
-0.373	-6.110e-5	-1.604e-4
-0.374	-6.108e-5	-1.629e-4
-0.375	-6.105e-5	-1.653e-4
-0.376	-6.100e-5	-1.677e-4
-0.377	-6.093e-5	-1.702e-4
-0.378	-6.084e-5	-1.726e-4
-0.379	-6.074e-5	-1.750e-4
-0.380	-6.061e-5	-1.775e-4
-0.381	-6.047e-5	-1.799e-4
-0.382	-6.031e-5	-1.823e-4
-0.383	-6.014e-5	-1.847e-4
-0.384	-5.996e-5	-1.871e-4
-0.385	-5.976e-5	-1.895e-4
-0.386	-5.955e-5	-1.919e-4
-0.387	-5.933e-5	-1.942e-4
-0.388	-5.910e-5	-1.966e-4
-0.389	-5.885e-5	-1.990e-4
-0.390	-5.860e-5	-2.013e-4
-0.391	-5.834e-5	-2.036e-4
-0.392	-5.808e-5	-2.060e-4
-0.393	-5.780e-5	-2.083e-4
-0.394	-5.752e-5	-2.106e-4
-0.395	-5.724e-5	-2.129e-4
-0.396	-5.694e-5	-2.151e-4
-0.397	-5.665e-5	-2.174e-4
-0.398	-5.635e-5	-2.197e-4
-0.399	-5.604e-5	-2.219e-4
-0.400	-5.574e-5	-2.241e-4
-0.401	-5.543e-5	-2.264e-4
-0.402	-5.512e-5	-2.286e-4
-0.403	-5.480e-5	-2.307e-4
-0.404	-5.449e-5	-2.329e-4
-0.405	-5.418e-5	-2.351e-4
-0.406	-5.386e-5	-2.372e-4
-0.407	-5.355e-5	-2.394e-4
-0.408	-5.323e-5	-2.415e-4
-0.409	-5.292e-5	-2.436e-4
-0.410	-5.261e-5	-2.457e-4
-0.411	-5.229e-5	-2.478e-4
-0.412	-5.198e-5	-2.499e-4
-0.413	-5.167e-5	-2.520e-4
-0.414	-5.136e-5	-2.540e-4
-0.415	-5.105e-5	-2.561e-4
-0.416	-5.075e-5	-2.581e-4
-0.417	-5.045e-5	-2.601e-4
-0.418	-5.015e-5	-2.621e-4
-0.419	-4.985e-5	-2.641e-4
-0.420	-4.955e-5	-2.661e-4
-0.421	-4.926e-5	-2.681e-4
-0.422	-4.897e-5	-2.700e-4
-0.423	-4.869e-5	-2.720e-4
-0.424	-4.840e-5	-2.739e-4
-0.425	-4.812e-5	-2.758e-4
-0.426	-4.785e-5	-2.778e-4
-0.427	-4.757e-5	-2.797e-4
-0.428	-4.730e-5	-2.816e-4
-0.429	-4.703e-5	-2.834e-4
-0.430	-4.677e-5	-2.853e-4
-0.431	-4.650e-5	-2.872e-4
-0.432	-4.624e-5	-2.890e-4
-0.433	-4.599e-5	-2.909e-4
-0.434	-4.573e-5	-2.927e-4
-0.435	-4.548e-5	-2.945e-4
-0.436	-4.523e-5	-2.963e-4
-0.437	-4.499e-5	-2.981e-4
-0.438	-4.475e-5	-2.999e-4
-0.439	-4.451e-5	-3.017e-4
-0.440	-4.428e-5	-3.035e-4
-0.441	-4.404e-5	-3.052e-4
-0.442	-4.382e-5	-3.070e-4
-0.443	-4.359e-5	-3.087e-4
-0.444	-4.337e-5	-3.104e-4
-0.445	-4.315e-5	-3.122e-4
-0.446	-4.293e-5	-3.139e-4
-0.447	-4.272e-5	-3.156e-4
-0.448	-4.250e-5	-3.173e-4
-0.449	-4.230e-5	-3.190e-4
-0.450	-4.209e-5	-3.207e-4
-0.451	-4.189e-5	-3.223e-4
-0.452	-4.169e-5	-3.240e-4
-0.453	-4.149e-5	-3.257e-4
-0.454	-4.129e-5	-3.273e-4
-0.455	-4.110e-5	-3.290e-4
-0.456	-4.091e-5	-3.306e-4
-0.457	-4.072e-5	-3.322e-4
-0.458	-4.054e-5	-3.339e-4
-0.459	-4.036e-5	-3.355e-4
-0.460	-4.018e-5	-3.371e-4
-0.461	-4.000e-5	-3.387e-4
-0.462	-3.982e-5	-3.403e-4
-0.463	-3.965e-5	-3.419e-4
-0.464	-3.948e-5	-3.434e-4
-0.465	-3.931e-5	-3.450e-4
-0.466	-3.914e-5	-3.466e-4
-0.467	-3.898e-5	-3.481e-4
-0.468	-3.882e-5	-3.497e-4
-0.469	-3.866e-5	-3.512e-4
-0.470	-3.850e-5	-3.528e-4
-0.471	-3.835e-5	-3.543e-4
-0.472	-3.819e-5	-3.558e-4
-0.473	-3.804e-5	-3.574e-4
-0.474	-3.789e-5	-3.589e-4
-0.475	-3.775e-5	-3.604e-4
-0.476	-3.760e-5	-3.619e-4
-0.477	-3.746e-5	-3.634e-4
-0.478	-3.732e-5	-3.649e-4
-0.479	-3.718e-5	-3.664e-4
-0.480	-3.704e-5	-3.678e-4
-0.481	-3.690e-5	-3.693e-4
-0.482	-3.677e-5	-3.708e-4
-0.483	-3.663e-5	-3.723e-4
-0.484	-3.650e-5	-3.737e-4
-0.485	-3.637e-5	-3.752e-4
-0.486	-3.624e-5	-3.766e-4
-0.487	-3.612e-5	-3.781e-4
-0.488	-3.599e-5	-3.795e-4
-0.489	-3.587e-5	-3.809e-4
-0.490	-3.575e-5	-3.824e-4
-0.491	-3.563e-5	-3.838e-4
-0.492	-3.551e-5	-3.852e-4
-0.493	-3.539e-5	-3.866e-4
-0.494	-3.528e-5	-3.880e-4
-0.495	-3.516e-5	-3.894e-4
-0.496	-3.505e-5	-3.909e-4
-0.497	-3.494e-5	-3.922e-4
-0.498	-3.483e-5	-3.936e-4
-0.499	-3.472e-5	-3.950e-4
-0.500	-3.461e-5	-3.964e-4
-0.501	-3.451e-5	-3.978e-4
-0.502	-3.440e-5	-3.992e-4
-0.503	-3.430e-5	-4.005e-4
-0.504	-3.419e-5	-4.019e-4
-0.505	-3.409e-5	-4.033e-4
-0.506	-3.399e-5	-4.046e-4
-0.507	-3.389e-5	-4.060e-4
-0.508	-3.380e-5	-4.073e-4
-0.509	-3.370e-5	-4.087e-4
-0.510	-3.360e-5	-4.100e-4
-0.511	-3.351e-5	-4.114e-4
-0.512	-3.342e-5	-4.127e-4
-0.513	-3.332e-5	-4.140e-4
-0.514	-3.323e-5	-4.154e-4
-0.515	-3.314e-5	-4.167e-4
-0.516	-3.305e-5	-4.180e-4
-0.517	-3.296e-5	-4.193e-4
-0.518	-3.288e-5	-4.207e-4
-0.519	-3.279e-5	-4.220e-4
-0.520	-3.270e-5	-4.233e-4
-0.521	-3.262e-5	-4.246e-4
-0.522	-3.254e-5	-4.259e-4
-0.523	-3.246e-5	-4.272e-4
-0.524	-3.237e-5	-4.285e-4
-0.525	-3.229e-5	-4.298e-4
-0.526	-3.221e-5	-4.311e-4
-0.527	-3.213e-5	-4.323e-4
-0.528	-3.205e-5	-4.336e-4
-0.529	-3.198e-5	-4.349e-4
-0.530	-3.190e-5	-4.362e-4
-0.531	-3.182e-5	-4.374e-4
-0.532	-3.175e-5	-4.387e-4
-0.533	-3.167e-5	-4.400e-4
-0.534	-3.160e-5	-4.413e-4
-0.535	-3.153e-5	-4.425e-4
-0.536	-3.146e-5	-4.438e-4
-0.537	-3.138e-5	-4.450e-4
-0.538	-3.131e-5	-4.463e-4
-0.539	-3.124e-5	-4.475e-4
-0.540	-3.118e-5	-4.488e-4
-0.541	-3.111e-5	-4.500e-4
-0.542	-3.104e-5	-4.513e-4
-0.543	-3.097e-5	-4.525e-4
-0.544	-3.091e-5	-4.537e-4
-0.545	-3.084e-5	-4.550e-4
-0.546	-3.078e-5	-4.562e-4
-0.547	-3.071e-5	-4.574e-4
-0.548	-3.065e-5	-4.587e-4
-0.549	-3.058e-5	-4.599e-4
-0.550	-3.052e-5	-4.611e-4
-0.551	-3.046e-5	-4.623e-4
-0.552	-3.040e-5	-4.635e-4
-0.553	-3.034e-5	-4.647e-4
-0.554	-3.028e-5	-4.660e-4
-0.555	-3.022e-5	-4.672e-4
-0.556	-3.016e-5	-4.684e-4
-0.557	-3.010e-5	-4.696e-4
-0.558	-3.004e-5	-4.708e-4
-0.559	-2.998e-5	-4.720e-4
-0.560	-2.993e-5	-4.732e-4
-0.561	-2.987e-5	-4.744e-4
-0.562	-2.982e-5	-4.756e-4
-0.563	-2.976e-5	-4.768e-4
-0.564	-2.971e-5	-4.779e-4
-0.565	-2.965e-5	-4.791e-4
-0.566	-2.960e-5	-4.803e-4
-0.567	-2.955e-5	-4.815e-4
-0.568	-2.949e-5	-4.827e-4
-0.569	-2.944e-5	-4.839e-4
-0.570	-2.939e-5	-4.850e-4
-0.571	-2.934e-5	-4.862e-4
-0.572	-2.929e-5	-4.874e-4
-0.573	-2.924e-5	-4.885e-4
-0.574	-2.919e-5	-4.897e-4
-0.575	-2.914e-5	-4.909e-4
-0.576	-2.909e-5	-4.920e-4
-0.577	-2.904e-5	-4.932e-4
-0.578	-2.899e-5	-4.944e-4
-0.579	-2.894e-5	-4.955e-4
-0.580	-2.889e-5	-4.967e-4
-0.581	-2.885e-5	-4.978e-4
-0.582	-2.880e-5	-4.990e-4
-0.583	-2.875e-5	-5.001e-4
-0.584	-2.871e-5	-5.013e-4
-0.585	-2.866e-5	-5.024e-4
-0.586	-2.862e-5	-5.036e-4
-0.587	-2.857e-5	-5.047e-4
-0.588	-2.853e-5	-5.059e-4
-0.589	-2.849e-5	-5.070e-4
-0.590	-2.844e-5	-5.081e-4
-0.591	-2.840e-5	-5.093e-4
-0.592	-2.835e-5	-5.104e-4
-0.593	-2.831e-5	-5.115e-4
-0.594	-2.827e-5	-5.127e-4
-0.595	-2.823e-5	-5.138e-4
-0.596	-2.819e-5	-5.149e-4
-0.597	-2.815e-5	-5.160e-4
-0.598	-2.810e-5	-5.172e-4
-0.599	-2.806e-5	-5.183e-4
-0.600	-2.797e-5	-1.119e-6
-0.599	-2.789e-5	-2.235e-6
-0.598	-2.783e-5	-3.348e-6
-0.597	-2.776e-5	-4.458e-6
-0.596	-2.771e-5	-5.567e-6
-0.595	-2.766e-5	-6.673e-6
-0.594	-2.761e-5	-7.777e-6
-0.593	-2.756e-5	-8.880e-6
-0.592	-2.751e-5	-9.980e-6
-0.591	-2.746e-5	-1.108e-5
-0.590	-2.742e-5	-1.218e-5
-0.589	-2.737e-5	-1.327e-5
-0.588	-2.733e-5	-1.436e-5
-0.587	-2.728e-5	-1.545e-5
-0.586	-2.724e-5	-1.654e-5
-0.585	-2.720e-5	-1.763e-5
-0.584	-2.715e-5	-1.872e-5
-0.583	-2.711e-5	-1.980e-5
-0.582	-2.707e-5	-2.089e-5
-0.581	-2.703e-5	-2.197e-5
-0.580	-2.699e-5	-2.305e-5
-0.579	-2.695e-5	-2.412e-5
-0.578	-2.691e-5	-2.520e-5
-0.577	-2.687e-5	-2.627e-5
-0.576	-2.683e-5	-2.735e-5
-0.575	-2.679e-5	-2.842e-5
-0.574	-2.675e-5	-2.949e-5
-0.573	-2.671e-5	-3.056e-5
-0.572	-2.667e-5	-3.162e-5
-0.571	-2.663e-5	-3.269e-5
-0.570	-2.659e-5	-3.375e-5
-0.569	-2.656e-5	-3.482e-5
-0.568	-2.652e-5	-3.588e-5
-0.567	-2.648e-5	-3.694e-5
-0.566	-2.645e-5	-3.799e-5
-0.565	-2.641e-5	-3.905e-5
-0.564	-2.638e-5	-4.011e-5
-0.563	-2.634e-5	-4.116e-5
-0.562	-2.631e-5	-4.221e-5
-0.561	-2.627e-5	-4.326e-5
-0.560	-2.624e-5	-4.431e-5
-0.559	-2.620e-5	-4.536e-5
-0.558	-2.617e-5	-4.641e-5
-0.557	-2.613e-5	-4.745e-5
-0.556	-2.610e-5	-4.850e-5
-0.555	-2.607e-5	-4.954e-5
-0.554	-2.603e-5	-5.058e-5
-0.553	-2.600e-5	-5.162e-5
-0.552	-2.597e-5	-5.266e-5
-0.551	-2.593e-5	-5.370e-5
-0.550	-2.590e-5	-5.473e-5
-0.549	-2.587e-5	-5.577e-5
-0.548	-2.583e-5	-5.680e-5
-0.547	-2.580e-5	-5.783e-5
-0.546	-2.577e-5	-5.886e-5
-0.545	-2.574e-5	-5.989e-5
-0.544	-2.571e-5	-6.092e-5
-0.543	-2.568e-5	-6.195e-5
-0.542	-2.564e-5	-6.297e-5
-0.541	-2.561e-5	-6.400e-5
-0.540	-2.558e-5	-6.502e-5
-0.539	-2.555e-5	-6.604e-5
-0.538	-2.552e-5	-6.706e-5
-0.537	-2.549e-5	-6.808e-5
-0.536	-2.546e-5	-6.910e-5
-0.535	-2.543e-5	-7.012e-5
-0.534	-2.540e-5	-7.113e-5
-0.533	-2.537e-5	-7.215e-5
-0.532	-2.534e-5	-7.316e-5
-0.531	-2.531e-5	-7.417e-5
-0.530	-2.528e-5	-7.519e-5
-0.529	-2.525e-5	-7.620e-5
-0.528	-2.522e-5	-7.720e-5
-0.527	-2.519e-5	-7.821e-5
-0.526	-2.516e-5	-7.922e-5
-0.525	-2.513e-5	-8.022e-5
-0.524	-2.510e-5	-8.123e-5
-0.523	-2.507e-5	-8.223e-5
-0.522	-2.504e-5	-8.323e-5
-0.521	-2.501e-5	-8.423e-5
-0.520	-2.498e-5	-8.523e-5
-0.519	-2.495e-5	-8.623e-5
-0.518	-2.492e-5	-8.723e-5
-0.517	-2.489e-5	-8.822e-5
-0.516	-2.486e-5	-8.921e-5
-0.515	-2.483e-5	-9.021e-5
-0.514	-2.480e-5	-9.120e-5
-0.513	-2.477e-5	-9.219e-5
-0.512	-2.474e-5	-9.318e-5
-0.511	-2.471e-5	-9.417e-5
-0.510	-2.468e-5	-9.516e-5
-0.509	-2.465e-5	-9.614e-5
-0.508	-2.462e-5	-9.713e-5
-0.507	-2.459e-5	-9.811e-5
-0.506	-2.456e-5	-9.909e-5
-0.505	-2.453e-5	-1.001e-4
-0.504	-2.450e-5	-1.011e-4
-0.503	-2.447e-5	-1.020e-4
-0.502	-2.444e-5	-1.030e-4
-0.501	-2.441e-5	-1.040e-4
-0.500	-2.437e-5	-1.050e-4
-0.499	-2.434e-5	-1.059e-4
-0.498	-2.431e-5	-1.069e-4
-0.497	-2.428e-5	-1.079e-4
-0.496	-2.425e-5	-1.088e-4
-0.495	-2.421e-5	-1.098e-4
-0.494	-2.418e-5	-1.108e-4
-0.493	-2.415e-5	-1.118e-4
-0.492	-2.411e-5	-1.127e-4
-0.491	-2.408e-5	-1.137e-4
-0.490	-2.405e-5	-1.146e-4
-0.489	-2.401e-5	-1.156e-4
-0.488	-2.398e-5	-1.166e-4
-0.487	-2.394e-5	-1.175e-4
-0.486	-2.391e-5	-1.185e-4
-0.485	-2.387e-5	-1.194e-4
-0.484	-2.383e-5	-1.204e-4
-0.483	-2.380e-5	-1.213e-4
-0.482	-2.376e-5	-1.223e-4
-0.481	-2.372e-5	-1.232e-4
-0.480	-2.368e-5	-1.242e-4
-0.479	-2.364e-5	-1.251e-4
-0.478	-2.360e-5	-1.261e-4
-0.477	-2.356e-5	-1.270e-4
-0.476	-2.352e-5	-1.280e-4
-0.475	-2.347e-5	-1.289e-4
-0.474	-2.343e-5	-1.298e-4
-0.473	-2.339e-5	-1.308e-4
-0.472	-2.334e-5	-1.317e-4
-0.471	-2.330e-5	-1.326e-4
-0.470	-2.325e-5	-1.336e-4
-0.469	-2.320e-5	-1.345e-4
-0.468	-2.316e-5	-1.354e-4
-0.467	-2.311e-5	-1.363e-4
-0.466	-2.306e-5	-1.373e-4
-0.465	-2.300e-5	-1.382e-4
-0.464	-2.295e-5	-1.391e-4
-0.463	-2.290e-5	-1.400e-4
-0.462	-2.284e-5	-1.409e-4
-0.461	-2.278e-5	-1.418e-4
-0.460	-2.273e-5	-1.427e-4
-0.459	-2.267e-5	-1.437e-4
-0.458	-2.261e-5	-1.446e-4
-0.457	-2.254e-5	-1.455e-4
-0.456	-2.248e-5	-1.464e-4
-0.455	-2.241e-5	-1.473e-4
-0.454	-2.235e-5	-1.482e-4
-0.453	-2.228e-5	-1.490e-4
-0.452	-2.221e-5	-1.499e-4
-0.451	-2.213e-5	-1.508e-4
-0.450	-2.206e-5	-1.517e-4
-0.449	-2.198e-5	-1.526e-4
-0.448	-2.190e-5	-1.535e-4
-0.447	-2.182e-5	-1.543e-4
-0.446	-2.174e-5	-1.552e-4
-0.445	-2.165e-5	-1.561e-4
-0.444	-2.156e-5	-1.569e-4
-0.443	-2.147e-5	-1.578e-4
-0.442	-2.138e-5	-1.586e-4
-0.441	-2.128e-5	-1.595e-4
-0.440	-2.118e-5	-1.603e-4
-0.439	-2.108e-5	-1.612e-4
-0.438	-2.097e-5	-1.620e-4
-0.437	-2.087e-5	-1.629e-4
-0.436	-2.075e-5	-1.637e-4
-0.435	-2.064e-5	-1.645e-4
-0.434	-2.052e-5	-1.653e-4
-0.433	-2.039e-5	-1.661e-4
-0.432	-2.027e-5	-1.670e-4
-0.431	-2.014e-5	-1.678e-4
-0.430	-2.001e-5	-1.686e-4
-0.429	-1.987e-5	-1.694e-4
-0.428	-1.972e-5	-1.701e-4
-0.427	-1.958e-5	-1.709e-4
-0.426	-1.942e-5	-1.717e-4
-0.425	-1.927e-5	-1.725e-4
-0.424	-1.911e-5	-1.732e-4
-0.423	-1.894e-5	-1.740e-4
-0.422	-1.876e-5	-1.747e-4
-0.421	-1.859e-5	-1.755e-4
-0.420	-1.840e-5	-1.762e-4
-0.419	-1.821e-5	-1.770e-4
-0.418	-1.802e-5	-1.777e-4
-0.417	-1.782e-5	-1.784e-4
-0.416	-1.761e-5	-1.791e-4
-0.415	-1.739e-5	-1.798e-4
-0.414	-1.717e-5	-1.805e-4
-0.413	-1.694e-5	-1.812e-4
-0.412	-1.670e-5	-1.818e-4
-0.411	-1.646e-5	-1.825e-4
-0.410	-1.621e-5	-1.831e-4
-0.409	-1.595e-5	-1.838e-4
-0.408	-1.568e-5	-1.844e-4
-0.407	-1.540e-5	-1.850e-4
-0.406	-1.512e-5	-1.856e-4
-0.405	-1.482e-5	-1.862e-4
-0.404	-1.452e-5	-1.868e-4
-0.403	-1.421e-5	-1.874e-4
-0.402	-1.388e-5	-1.879e-4
-0.401	-1.355e-5	-1.885e-4
-0.400	-1.321e-5	-1.890e-4
-0.399	-1.286e-5	-1.895e-4
-0.398	-1.250e-5	-1.900e-4
-0.397	-1.213e-5	-1.905e-4
-0.396	-1.174e-5	-1.910e-4
-0.395	-1.135e-5	-1.914e-4
-0.394	-1.094e-5	-1.918e-4
-0.393	-1.052e-5	-1.923e-4
-0.392	-1.010e-5	-1.927e-4
-0.391	-9.654e-6	-1.931e-4
-0.390	-9.201e-6	-1.934e-4
-0.389	-8.737e-6	-1.938e-4
-0.388	-8.263e-6	-1.941e-4
-0.387	-7.779e-6	-1.944e-4
-0.386	-7.282e-6	-1.947e-4
-0.385	-6.772e-6	-1.950e-4
-0.384	-6.249e-6	-1.952e-4
-0.383	-5.714e-6	-1.955e-4
-0.382	-5.168e-6	-1.957e-4
-0.381	-4.612e-6	-1.958e-4
-0.380	-4.044e-6	-1.960e-4
-0.379	-3.466e-6	-1.961e-4
-0.378	-2.876e-6	-1.963e-4
-0.377	-2.275e-6	-1.964e-4
-0.376	-1.665e-6	-1.964e-4
-0.375	-1.044e-6	-1.965e-4
-0.374	-4.158e-7	-1.965e-4
-0.373	2.226e-7	-1.965e-4
-0.372	8.701e-7	-1.964e-4
-0.371	1.524e-6	-1.964e-4
-0.370	2.186e-6	-1.963e-4
-0.369	2.853e-6	-1.962e-4
-0.368	3.526e-6	-1.960e-4
-0.367	4.205e-6	-1.959e-4
-0.366	4.891e-6	-1.957e-4
-0.365	5.581e-6	-1.954e-4
-0.364	6.273e-6	-1.952e-4
-0.363	6.966e-6	-1.949e-4
-0.362	7.660e-6	-1.946e-4
-0.361	8.354e-6	-1.943e-4
-0.360	9.050e-6	-1.939e-4
-0.359	9.747e-6	-1.935e-4
-0.358	1.044e-5	-1.931e-4
-0.357	1.113e-5	-1.927e-4
-0.356	1.182e-5	-1.922e-4
-0.355	1.250e-5	-1.917e-4
-0.354	1.318e-5	-1.912e-4
-0.353	1.385e-5	-1.906e-4
-0.352	1.451e-5	-1.900e-4
-0.351	1.517e-5	-1.894e-4
-0.350	1.582e-5	-1.888e-4
-0.349	1.645e-5	-1.881e-4
-0.348	1.707e-5	-1.874e-4
-0.347	1.768e-5	-1.867e-4
-0.346	1.828e-5	-1.860e-4
-0.345	1.887e-5	-1.853e-4
-0.344	1.945e-5	-1.845e-4
-0.343	2.001e-5	-1.837e-4
-0.342	2.055e-5	-1.829e-4
-0.341	2.109e-5	-1.820e-4
-0.340	2.160e-5	-1.811e-4
-0.339	2.210e-5	-1.803e-4
-0.338	2.258e-5	-1.794e-4
-0.337	2.305e-5	-1.784e-4
-0.336	2.350e-5	-1.775e-4
-0.335	2.393e-5	-1.765e-4
-0.334	2.434e-5	-1.756e-4
-0.333	2.474e-5	-1.746e-4
-0.332	2.512e-5	-1.736e-4
-0.331	2.548e-5	-1.725e-4
-0.330	2.582e-5	-1.715e-4
-0.329	2.615e-5	-1.705e-4
-0.328	2.645e-5	-1.694e-4
-0.327	2.675e-5	-1.683e-4
-0.326	2.702e-5	-1.673e-4
-0.325	2.728e-5	-1.662e-4
-0.324	2.752e-5	-1.651e-4
-0.323	2.773e-5	-1.640e-4
-0.322	2.794e-5	-1.628e-4
-0.321	2.813e-5	-1.617e-4
-0.320	2.830e-5	-1.606e-4
-0.319	2.846e-5	-1.594e-4
-0.318	2.861e-5	-1.583e-4
-0.317	2.874e-5	-1.572e-4
-0.316	2.885e-5	-1.560e-4
-0.315	2.895e-5	-1.548e-4
-0.314	2.903e-5	-1.537e-4
-0.313	2.911e-5	-1.525e-4
-0.312	2.917e-5	-1.513e-4
-0.311	2.922e-5	-1.502e-4
-0.310	2.925e-5	-1.490e-4
-0.309	2.928e-5	-1.478e-4
-0.308	2.930e-5	-1.467e-4
-0.307	2.930e-5	-1.455e-4
-0.306	2.930e-5	-1.443e-4
-0.305	2.928e-5	-1.432e-4
-0.304	2.926e-5	-1.420e-4
-0.303	2.922e-5	-1.408e-4
-0.302	2.918e-5	-1.396e-4
-0.301	2.913e-5	-1.385e-4
-0.300	2.907e-5	-1.373e-4
-0.299	2.901e-5	-1.362e-4
-0.298	2.893e-5	-1.350e-4
-0.297	2.885e-5	-1.338e-4
-0.296	2.877e-5	-1.327e-4
-0.295	2.868e-5	-1.315e-4
-0.294	2.859e-5	-1.304e-4
-0.293	2.849e-5	-1.293e-4
-0.292	2.839e-5	-1.281e-4
-0.291	2.828e-5	-1.270e-4
-0.290	2.817e-5	-1.259e-4
-0.289	2.806e-5	-1.247e-4
-0.288	2.794e-5	-1.236e-4
-0.287	2.782e-5	-1.225e-4
-0.286	2.770e-5	-1.214e-4
-0.285	2.758e-5	-1.203e-4
-0.284	2.745e-5	-1.192e-4
-0.283	2.732e-5	-1.181e-4
-0.282	2.719e-5	-1.170e-4
-0.281	2.706e-5	-1.159e-4
-0.280	2.693e-5	-1.149e-4
-0.279	2.679e-5	-1.138e-4
-0.278	2.666e-5	-1.127e-4
-0.277	2.652e-5	-1.117e-4
-0.276	2.639e-5	-1.106e-4
-0.275	2.625e-5	-1.096e-4
-0.274	2.611e-5	-1.085e-4
-0.273	2.598e-5	-1.075e-4
-0.272	2.584e-5	-1.064e-4
-0.271	2.570e-5	-1.054e-4
-0.270	2.556e-5	-1.044e-4
-0.269	2.542e-5	-1.034e-4
-0.268	2.529e-5	-1.024e-4
-0.267	2.515e-5	-1.014e-4
-0.266	2.501e-5	-1.004e-4
-0.265	2.488e-5	-9.937e-5
-0.264	2.474e-5	-9.838e-5
-0.263	2.460e-5	-9.739e-5
-0.262	2.447e-5	-9.641e-5
-0.261	2.433e-5	-9.544e-5
-0.260	2.419e-5	-9.447e-5
-0.259	2.406e-5	-9.351e-5
-0.258	2.392e-5	-9.255e-5
-0.257	2.379e-5	-9.160e-5
-0.256	2.365e-5	-9.066e-5
-0.255	2.352e-5	-8.972e-5
-0.254	2.338e-5	-8.878e-5
-0.253	2.325e-5	-8.785e-5
-0.252	2.311e-5	-8.693e-5
-0.251	2.298e-5	-8.601e-5
-0.250	2.284e-5	-8.509e-5
-0.249	2.271e-5	-8.419e-5
-0.248	2.257e-5	-8.328e-5
-0.247	2.244e-5	-8.239e-5
-0.246	2.231e-5	-8.149e-5
-0.245	2.217e-5	-8.061e-5
-0.244	2.204e-5	-7.972e-5
-0.243	2.190e-5	-7.885e-5
-0.242	2.177e-5	-7.798e-5
-0.241	2.163e-5	-7.711e-5
-0.240	2.150e-5	-7.625e-5
-0.239	2.136e-5	-7.540e-5
-0.238	2.122e-5	-7.455e-5
-0.237	2.109e-5	-7.371e-5
-0.236	2.095e-5	-7.287e-5
-0.235	2.082e-5	-7.204e-5
-0.234	2.068e-5	-7.121e-5
-0.233	2.054e-5	-7.039e-5
-0.232	2.041e-5	-6.957e-5
-0.231	2.027e-5	-6.876e-5
-0.230	2.013e-5	-6.795e-5
-0.229	2.000e-5	-6.715e-5
-0.228	1.986e-5	-6.636e-5
-0.227	1.972e-5	-6.557e-5
-0.226	1.958e-5	-6.479e-5
-0.225	1.944e-5	-6.401e-5
-0.224	1.931e-5	-6.324e-5
-0.223	1.917e-5	-6.247e-5
-0.222	1.903e-5	-6.171e-5
-0.221	1.889e-5	-6.095e-5
-0.220	1.875e-5	-6.020e-5
-0.219	1.862e-5	-5.946e-5
-0.218	1.848e-5	-5.872e-5
-0.217	1.834e-5	-5.799e-5
-0.216	1.820e-5	-5.726e-5
-0.215	1.807e-5	-5.654e-5
-0.214	1.793e-5	-5.582e-5
-0.213	1.779e-5	-5.511e-5
-0.212	1.766e-5	-5.440e-5
-0.211	1.752e-5	-5.370e-5
-0.210	1.739e-5	-5.300e-5
-0.209	1.725e-5	-5.231e-5
-0.208	1.712e-5	-5.163e-5
-0.207	1.698e-5	-5.095e-5
-0.206	1.685e-5	-5.028e-5
-0.205	1.672e-5	-4.961e-5
-0.204	1.658e-5	-4.894e-5
-0.203	1.645e-5	-4.829e-5
-0.202	1.632e-5	-4.763e-5
-0.201	1.619e-5	-4.698e-5
-0.200	1.606e-5	-4.634e-5
-0.199	1.594e-5	-4.570e-5
-0.198	1.581e-5	-4.507e-5
-0.197	1.568e-5	-4.445e-5
-0.196	1.556e-5	-4.382e-5
-0.195	1.543e-5	-4.321e-5
-0.194	1.531e-5	-4.259e-5
-0.193	1.518e-5	-4.199e-5
-0.192	1.506e-5	-4.138e-5
-0.191	1.494e-5	-4.079e-5
-0.190	1.482e-5	-4.019e-5
-0.189	1.470e-5	-3.961e-5
-0.188	1.458e-5	-3.902e-5
-0.187	1.446e-5	-3.844e-5
-0.186	1.435e-5	-3.787e-5
-0.185	1.423e-5	-3.730e-5
-0.184	1.412e-5	-3.674e-5
-0.183	1.400e-5	-3.618e-5
-0.182	1.389e-5	-3.562e-5
-0.181	1.378e-5	-3.507e-5
-0.180	1.367e-5	-3.452e-5
-0.179	1.356e-5	-3.398e-5
-0.178	1.345e-5	-3.344e-5
-0.177	1.334e-5	-3.291e-5
-0.176	1.323e-5	-3.238e-5
-0.175	1.313e-5	-3.185e-5
-0.174	1.302e-5	-3.133e-5
-0.173	1.292e-5	-3.082e-5
-0.172	1.282e-5	-3.030e-5
-0.171	1.272e-5	-2.980e-5
-0.170	1.261e-5	-2.929e-5
-0.169	1.251e-5	-2.879e-5
-0.168	1.242e-5	-2.829e-5
-0.167	1.232e-5	-2.780e-5
-0.166	1.222e-5	-2.731e-5
-0.165	1.213e-5	-2.683e-5
-0.164	1.203e-5	-2.635e-5
-0.163	1.194e-5	-2.587e-5
-0.162	1.184e-5	-2.539e-5
-0.161	1.175e-5	-2.492e-5
-0.160	1.166e-5	-2.446e-5
-0.159	1.157e-5	-2.399e-5
-0.158	1.148e-5	-2.354e-5
-0.157	1.140e-5	-2.308e-5
-0.156	1.131e-5	-2.263e-5
-0.155	1.123e-5	-2.218e-5
-0.154	1.114e-5	-2.173e-5
-0.153	1.106e-5	-2.129e-5
-0.152	1.097e-5	-2.085e-5
-0.151	1.089e-5	-2.042e-5
-0.150	1.081e-5	-1.998e-5
-0.149	1.073e-5	-1.955e-5
-0.148	1.065e-5	-1.913e-5
-0.147	1.057e-5	-1.870e-5
-0.146	1.050e-5	-1.829e-5
-0.145	1.042e-5	-1.787e-5
-0.144	1.035e-5	-1.745e-5
-0.143	1.027e-5	-1.704e-5
-0.142	1.020e-5	-1.664e-5
-0.141	1.013e-5	-1.623e-5
-0.140	1.006e-5	-1.583e-5
-0.139	9.986e-6	-1.543e-5
-0.138	9.917e-6	-1.503e-5
-0.137	9.849e-6	-1.464e-5
-0.136	9.782e-6	-1.425e-5
-0.135	9.717e-6	-1.386e-5
-0.134	9.652e-6	-1.347e-5
-0.133	9.588e-6	-1.309e-5
-0.132	9.524e-6	-1.271e-5
-0.131	9.462e-6	-1.233e-5
-0.130	9.401e-6	-1.195e-5
-0.129	9.341e-6	-1.158e-5
-0.128	9.282e-6	-1.121e-5
-0.127	9.224e-6	-1.084e-5
-0.126	9.167e-6	-1.047e-5
-0.125	9.111e-6	-1.011e-5
-0.124	9.056e-6	-9.746e-6
-0.123	9.002e-6	-9.386e-6
-0.122	8.949e-6	-9.028e-6
-0.121	8.897e-6	-8.672e-6
-0.120	8.846e-6	-8.318e-6
-0.119	8.795e-6	-7.966e-6
-0.118	8.746e-6	-7.617e-6
-0.117	8.697e-6	-7.269e-6
-0.116	8.649e-6	-6.923e-6
-0.115	8.602e-6	-6.579e-6
-0.114	8.555e-6	-6.236e-6
-0.113	8.509e-6	-5.896e-6
-0.112	8.464e-6	-5.557e-6
-0.111	8.420e-6	-5.221e-6
-0.110	8.376e-6	-4.886e-6
-0.109	8.332e-6	-4.552e-6
-0.108	8.289e-6	-4.221e-6
-0.107	8.246e-6	-3.891e-6
-0.106	8.204e-6	-3.563e-6
-0.105	8.162e-6	-3.236e-6
-0.104	8.120e-6	-2.911e-6
-0.103	8.078e-6	-2.588e-6
-0.102	8.036e-6	-2.267e-6
-0.101	7.994e-6	-1.947e-6
-0.100	7.951e-6	-1.629e-6
-0.099	7.908e-6	-1.313e-6
-0.098	7.866e-6	-9.982e-7
-0.097	7.823e-6	-6.853e-7
-0.096	7.779e-6	-3.741e-7
-0.095	7.736e-6	-6.465e-8
-0.094	7.693e-6	2.431e-7
-0.093	7.649e-6	5.490e-7
-0.092	7.606e-6	8.532e-7
-0.091	7.562e-6	1.156e-6
-0.090	7.517e-6	1.456e-6
-0.089	7.473e-6	1.755e-6
-0.088	7.428e-6	2.052e-6
-0.087	7.383e-6	2.348e-6
-0.086	7.338e-6	2.641e-6
-0.085	7.293e-6	2.933e-6
-0.084	7.248e-6	3.223e-6
-0.083	7.203e-6	3.511e-6
-0.082	7.158e-6	3.797e-6
-0.081	7.113e-6	4.082e-6
-0.080	7.067e-6	4.365e-6
-0.079	7.022e-6	4.646e-6
-0.078	6.977e-6	4.925e-6
-0.077	6.932e-6	5.202e-6
-0.076	6.888e-6	5.477e-6
-0.075	6.843e-6	5.751e-6
-0.074	6.799e-6	6.023e-6
-0.073	6.755e-6	6.293e-6
-0.072	6.711e-6	6.562e-6
-0.071	6.668e-6	6.828e-6
-0.070	6.625e-6	7.093e-6
-0.069	6.582e-6	7.357e-6
-0.068	6.539e-6	7.618e-6
-0.067	6.497e-6	7.878e-6
-0.066	6.455e-6	8.136e-6
-0.065	6.413e-6	8.393e-6
-0.064	6.372e-6	8.648e-6
-0.063	6.331e-6	8.901e-6
-0.062	6.290e-6	9.153e-6
-0.061	6.249e-6	9.403e-6
-0.060	6.208e-6	9.651e-6
-0.059	6.168e-6	9.898e-6
-0.058	6.129e-6	1.014e-5
-0.057	6.090e-6	1.039e-5
-0.056	6.051e-6	1.063e-5
-0.055	6.013e-6	1.087e-5
-0.054	5.975e-6	1.111e-5
-0.053	5.937e-6	1.135e-5
-0.052	5.900e-6	1.158e-5
-0.051	5.863e-6	1.182e-5
-0.050	5.826e-6	1.205e-5
-0.049	5.790e-6	1.228e-5
-0.048	5.753e-6	1.251e-5
-0.047	5.718e-6	1.274e-5
-0.046	5.682e-6	1.297e-5
-0.045	5.647e-6	1.319e-5
-0.044	5.613e-6	1.342e-5
-0.043	5.578e-6	1.364e-5
-0.042	5.544e-6	1.386e-5
-0.041	5.510e-6	1.408e-5
-0.040	5.476e-6	1.430e-5
-0.039	5.442e-6	1.452e-5
-0.038	5.409e-6	1.474e-5
-0.037	5.376e-6	1.495e-5
-0.036	5.344e-6	1.516e-5
-0.035	5.312e-6	1.538e-5
-0.034	5.280e-6	1.559e-5
-0.033	5.249e-6	1.580e-5
-0.032	5.217e-6	1.601e-5
-0.031	5.186e-6	1.621e-5
-0.030	5.155e-6	1.642e-5
-0.029	5.125e-6	1.663e-5
-0.028	5.095e-6	1.683e-5
-0.027	5.066e-6	1.703e-5
-0.026	5.036e-6	1.723e-5
-0.025	5.007e-6	1.743e-5
-0.024	4.977e-6	1.763e-5
-0.023	4.948e-6	1.783e-5
-0.022	4.919e-6	1.803e-5
-0.021	4.891e-6	1.822e-5
-0.020	4.863e-6	1.842e-5
-0.019	4.835e-6	1.861e-5
-0.018	4.807e-6	1.880e-5
-0.017	4.779e-6	1.899e-5
-0.016	4.751e-6	1.918e-5
-0.015	4.724e-6	1.937e-5
-0.014	4.697e-6	1.956e-5
-0.013	4.670e-6	1.975e-5
-0.012	4.643e-6	1.993e-5
-0.011	4.617e-6	2.012e-5
-0.010	4.590e-6	2.030e-5
-0.009	4.565e-6	2.048e-5
-0.008	4.539e-6	2.067e-5
-0.007	4.513e-6	2.085e-5
-0.006	4.488e-6	2.103e-5
-0.005	4.463e-6	2.120e-5
-0.004	4.438e-6	2.138e-5
-0.003	4.413e-6	2.156e-5
-0.002	4.389e-6	2.173e-5
-0.001	4.364e-6	2.191e-5
-0.000	4.218e-6	1.687e-7
-0.001	4.130e-6	3.339e-7
-0.002	4.054e-6	4.961e-7
-0.003	3.991e-6	6.557e-7
-0.004	3.944e-6	8.135e-7
-0.005	3.905e-6	9.697e-7
-0.006	3.869e-6	1.124e-6
-0.007	3.832e-6	1.278e-6
-0.008	3.796e-6	1.430e-6
-0.009	3.761e-6	1.580e-6
-0.010	3.728e-6	1.729e-6
-0.011	3.695e-6	1.877e-6
-0.012	3.663e-6	2.023e-6
-0.013	3.632e-6	2.169e-6
-0.014	3.601e-6	2.313e-6
-0.015	3.571e-6	2.456e-6
-0.016	3.542e-6	2.597e-6
-0.017	3.513e-6	2.738e-6
-0.018	3.484e-6	2.877e-6
-0.019	3.456e-6	3.015e-6
-0.020	3.428e-6	3.152e-6
-0.021	3.400e-6	3.288e-6
-0.022	3.373e-6	3.423e-6
-0.023	3.346e-6	3.557e-6
-0.024	3.319e-6	3.690e-6
-0.025	3.293e-6	3.822e-6
-0.026	3.267e-6	3.952e-6
-0.027	3.241e-6	4.082e-6
-0.028	3.215e-6	4.211e-6
-0.029	3.190e-6	4.338e-6
-0.030	3.165e-6	4.465e-6
-0.031	3.140e-6	4.590e-6
-0.032	3.115e-6	4.715e-6
-0.033	3.090e-6	4.839e-6
-0.034	3.066e-6	4.961e-6
-0.035	3.042e-6	5.083e-6
-0.036	3.018e-6	5.204e-6
-0.037	2.994e-6	5.323e-6
-0.038	2.971e-6	5.442e-6
-0.039	2.947e-6	5.560e-6
-0.040	2.924e-6	5.677e-6
-0.041	2.901e-6	5.793e-6
-0.042	2.878e-6	5.908e-6
-0.043	2.855e-6	6.022e-6
-0.044	2.833e-6	6.136e-6
-0.045	2.810e-6	6.248e-6
-0.046	2.788e-6	6.360e-6
-0.047	2.765e-6	6.470e-6
-0.048	2.743e-6	6.580e-6
-0.049	2.721e-6	6.689e-6
-0.050	2.699e-6	6.797e-6
-0.051	2.677e-6	6.904e-6
-0.052	2.655e-6	7.010e-6
-0.053	2.633e-6	7.115e-6
-0.054	2.611e-6	7.220e-6
-0.055	2.589e-6	7.323e-6
-0.056	2.567e-6	7.426e-6
-0.057	2.546e-6	7.528e-6
-0.058	2.524e-6	7.629e-6
-0.059	2.503e-6	7.729e-6
-0.060	2.481e-6	7.828e-6
-0.061	2.459e-6	7.926e-6
-0.062	2.437e-6	8.024e-6
-0.063	2.416e-6	8.121e-6
-0.064	2.394e-6	8.216e-6
-0.065	2.372e-6	8.311e-6
-0.066	2.349e-6	8.405e-6
-0.067	2.327e-6	8.498e-6
-0.068	2.305e-6	8.590e-6
-0.069	2.282e-6	8.682e-6
-0.070	2.260e-6	8.772e-6
-0.071	2.237e-6	8.862e-6
-0.072	2.214e-6	8.950e-6
-0.073	2.191e-6	9.038e-6
-0.074	2.168e-6	9.125e-6
-0.075	2.145e-6	9.210e-6
-0.076	2.122e-6	9.295e-6
-0.077	2.098e-6	9.379e-6
-0.078	2.074e-6	9.462e-6
-0.079	2.050e-6	9.544e-6
-0.080	2.026e-6	9.625e-6
-0.081	2.001e-6	9.705e-6
-0.082	1.976e-6	9.784e-6
-0.083	1.952e-6	9.862e-6
-0.084	1.927e-6	9.939e-6
-0.085	1.902e-6	1.002e-5
-0.086	1.876e-6	1.009e-5
-0.087	1.850e-6	1.016e-5
-0.088	1.824e-6	1.024e-5
-0.089	1.798e-6	1.031e-5
-0.090	1.772e-6	1.038e-5
-0.091	1.746e-6	1.045e-5
-0.092	1.720e-6	1.052e-5
-0.093	1.693e-6	1.059e-5
-0.094	1.667e-6	1.065e-5
-0.095	1.640e-6	1.072e-5
-0.096	1.614e-6	1.078e-5
-0.097	1.588e-6	1.085e-5
-0.098	1.562e-6	1.091e-5
-0.099	1.536e-6	1.097e-5
-0.100	1.511e-6	1.103e-5
-0.101	1.486e-6	1.109e-5
-0.102	1.461e-6	1.115e-5
-0.103	1.437e-6	1.121e-5
-0.104	1.413e-6	1.126e-5
-0.105	1.390e-6	1.132e-5
-0.106	1.368e-6	1.137e-5
-0.107	1.346e-6	1.143e-5
-0.108	1.325e-6	1.148e-5
-0.109	1.304e-6	1.153e-5
-0.110	1.284e-6	1.158e-5
-0.111	1.265e-6	1.163e-5
-0.112	1.246e-6	1.168e-5
-0.113	1.228e-6	1.173e-5
-0.114	1.211e-6	1.178e-5
-0.115	1.194e-6	1.183e-5
-0.116	1.177e-6	1.188e-5
-0.117	1.162e-6	1.192e-5
-0.118	1.147e-6	1.197e-5
-0.119	1.132e-6	1.201e-5
-0.120	1.118e-6	1.206e-5
-0.121	1.105e-6	1.210e-5
-0.122	1.091e-6	1.215e-5
-0.123	1.079e-6	1.219e-5
-0.124	1.066e-6	1.223e-5
-0.125	1.054e-6	1.227e-5
-0.126	1.043e-6	1.232e-5
-0.127	1.031e-6	1.236e-5
-0.128	1.020e-6	1.240e-5
-0.129	1.009e-6	1.244e-5
-0.130	9.986e-7	1.248e-5
-0.131	9.880e-7	1.252e-5
-0.132	9.775e-7	1.256e-5
-0.133	9.672e-7	1.260e-5
-0.134	9.570e-7	1.263e-5
-0.135	9.469e-7	1.267e-5
-0.136	9.368e-7	1.271e-5
-0.137	9.267e-7	1.275e-5
-0.138	9.165e-7	1.278e-5
-0.139	9.061e-7	1.282e-5
-0.140	8.957e-7	1.286e-5
-0.141	8.854e-7	1.289e-5
-0.142	8.749e-7	1.293e-5
-0.143	8.645e-7	1.296e-5
-0.144	8.539e-7	1.299e-5
-0.145	8.431e-7	1.303e-5
-0.146	8.322e-7	1.306e-5
-0.147	8.211e-7	1.309e-5
-0.148	8.099e-7	1.313e-5
-0.149	7.987e-7	1.316e-5
-0.150	7.872e-7	1.319e-5
-0.151	7.754e-7	1.322e-5
-0.152	7.635e-7	1.325e-5
-0.153	7.512e-7	1.328e-5
-0.154	7.388e-7	1.331e-5
-0.155	7.263e-7	1.334e-5
-0.156	7.136e-7	1.337e-5
-0.157	7.007e-7	1.340e-5
-0.158	6.875e-7	1.342e-5
-0.159	6.740e-7	1.345e-5
-0.160	6.604e-7	1.348e-5
-0.161	6.465e-7	1.350e-5
-0.162	6.323e-7	1.353e-5
-0.163	6.180e-7	1.355e-5
-0.164	6.032e-7	1.358e-5
-0.165	5.883e-7	1.360e-5
-0.166	5.730e-7	1.362e-5
-0.167	5.575e-7	1.365e-5
-0.168	5.417e-7	1.367e-5
-0.169	5.254e-7	1.369e-5
-0.170	5.088e-7	1.371e-5
-0.171	4.919e-7	1.373e-5
-0.172	4.746e-7	1.375e-5
-0.173	4.569e-7	1.377e-5
-0.174	4.387e-7	1.378e-5
-0.175	4.202e-7	1.380e-5
-0.176	4.014e-7	1.382e-5
-0.177	3.822e-7	1.383e-5
-0.178	3.627e-7	1.385e-5
-0.179	3.427e-7	1.386e-5
-0.180	3.221e-7	1.387e-5
-0.181	3.009e-7	1.389e-5
-0.182	2.791e-7	1.390e-5
-0.183	2.568e-7	1.391e-5
-0.184	2.340e-7	1.392e-5
-0.185	2.106e-7	1.392e-5
-0.186	1.867e-7	1.393e-5
-0.187	1.622e-7	1.394e-5
-0.188	1.371e-7	1.394e-5
-0.189	1.115e-7	1.395e-5
-0.190	8.499e-8	1.395e-5
-0.191	5.778e-8	1.395e-5
-0.192	2.978e-8	1.396e-5
-0.193	9.504e-10	1.396e-5
-0.194	-2.859e-8	1.395e-5
-0.195	-5.891e-8	1.395e-5
-0.196	-9.004e-8	1.395e-5
-0.197	-1.219e-7	1.394e-5
-0.198	-1.547e-7	1.394e-5
-0.199	-1.882e-7	1.393e-5
-0.200	-2.227e-7	1.392e-5
-0.201	-2.580e-7	1.391e-5
-0.202	-2.943e-7	1.390e-5
-0.203	-3.316e-7	1.389e-5
-0.204	-3.699e-7	1.387e-5
-0.205	-4.093e-7	1.385e-5
-0.206	-4.499e-7	1.384e-5
-0.207	-4.916e-7	1.382e-5
-0.208	-5.345e-7	1.380e-5
-0.209	-5.786e-7	1.377e-5
-0.210	-6.238e-7	1.375e-5
-0.211	-6.702e-7	1.372e-5
-0.212	-7.181e-7	1.369e-5
-0.213	-7.673e-7	1.366e-5
-0.214	-8.181e-7	1.363e-5
-0.215	-8.704e-7	1.359e-5
-0.216	-9.241e-7	1.356e-5
-0.217	-9.791e-7	1.352e-5
-0.218	-1.035e-6	1.348e-5
-0.219	-1.093e-6	1.343e-5
-0.220	-1.152e-6	1.339e-5
-0.221	-1.213e-6	1.334e-5
-0.222	-1.275e-6	1.329e-5
-0.223	-1.339e-6	1.323e-5
-0.224	-1.405e-6	1.318e-5
-0.225	-1.474e-6	1.312e-5
-0.226	-1.543e-6	1.306e-5
-0.227	-1.615e-6	1.299e-5
-0.228	-1.689e-6	1.292e-5
-0.229	-1.765e-6	1.285e-5
-0.230	-1.843e-6	1.278e-5
-0.231	-1.923e-6	1.270e-5
-0.232	-2.005e-6	1.262e-5
-0.233	-2.089e-6	1.254e-5
-0.234	-2.176e-6	1.245e-5
-0.235	-2.264e-6	1.236e-5
-0.236	-2.356e-6	1.227e-5
-0.237	-2.450e-6	1.217e-5
-0.238	-2.546e-6	1.207e-5
-0.239	-2.645e-6	1.196e-5
-0.240	-2.747e-6	1.185e-5
-0.241	-2.851e-6	1.174e-5
-0.242	-2.959e-6	1.162e-5
-0.243	-3.070e-6	1.150e-5
-0.244	-3.183e-6	1.137e-5
-0.245	-3.300e-6	1.124e-5
-0.246	-3.420e-6	1.110e-5
-0.247	-3.543e-6	1.096e-5
-0.248	-3.671e-6	1.081e-5
-0.249	-3.802e-6	1.066e-5
-0.250	-3.936e-6	1.050e-5
-0.251	-4.075e-6	1.034e-5
-0.252	-4.218e-6	1.017e-5
-0.253	-4.364e-6	9.996e-6
-0.254	-4.515e-6	9.816e-6
-0.255	-4.670e-6	9.629e-6
-0.256	-4.831e-6	9.436e-6
-0.257	-4.997e-6	9.236e-6
-0.258	-5.167e-6	9.029e-6
-0.259	-5.343e-6	8.815e-6
-0.260	-5.524e-6	8.594e-6
-0.261	-5.710e-6	8.366e-6
-0.262	-5.903e-6	8.130e-6
-0.263	-6.102e-6	7.886e-6
-0.264	-6.307e-6	7.634e-6
-0.265	-6.519e-6	7.373e-6
-0.266	-6.737e-6	7.103e-6
-0.267	-6.963e-6	6.825e-6
-0.268	-7.196e-6	6.537e-6
-0.269	-7.436e-6	6.240e-6
-0.270	-7.684e-6	5.932e-6
-0.271	-7.941e-6	5.615e-6
-0.272	-8.206e-6	5.286e-6
-0.273	-8.480e-6	4.947e-6
-0.274	-8.764e-6	4.597e-6
-0.275	-9.057e-6	4.234e-6
-0.276	-9.359e-6	3.860e-6
-0.277	-9.671e-6	3.473e-6
-0.278	-9.993e-6	3.073e-6
-0.279	-1.033e-5	2.660e-6
-0.280	-1.067e-5	2.233e-6
-0.281	-1.103e-5	1.792e-6
-0.282	-1.140e-5	1.337e-6
-0.283	-1.177e-5	8.655e-7
-0.284	-1.217e-5	3.789e-7
-0.285	-1.257e-5	-1.238e-7
-0.286	-1.298e-5	-6.430e-7
-0.287	-1.341e-5	-1.179e-6
-0.288	-1.385e-5	-1.733e-6
-0.289	-1.430e-5	-2.305e-6
-0.290	-1.477e-5	-2.896e-6
-0.291	-1.525e-5	-3.506e-6
-0.292	-1.574e-5	-4.135e-6
-0.293	-1.625e-5	-4.785e-6
-0.294	-1.677e-5	-5.456e-6
-0.295	-1.730e-5	-6.148e-6
-0.296	-1.784e-5	-6.862e-6
-0.297	-1.840e-5	-7.598e-6
-0.298	-1.897e-5	-8.356e-6
-0.299	-1.955e-5	-9.139e-6
-0.300	-2.015e-5	-9.945e-6
-0.301	-2.076e-5	-1.077e-5
-0.302	-2.137e-5	-1.163e-5
-0.303	-2.200e-5	-1.251e-5
-0.304	-2.264e-5	-1.342e-5
-0.305	-2.329e-5	-1.435e-5
-0.306	-2.395e-5	-1.531e-5
-0.307	-2.463e-5	-1.629e-5
-0.308	-2.531e-5	-1.730e-5
-0.309	-2.599e-5	-1.834e-5
-0.310	-2.668e-5	-1.941e-5
-0.311	-2.738e-5	-2.051e-5
-0.312	-2.809e-5	-2.163e-5
-0.313	-2.880e-5	-2.278e-5
-0.314	-2.951e-5	-2.396e-5
-0.315	-3.023e-5	-2.517e-5
-0.316	-3.096e-5	-2.641e-5
-0.317	-3.169e-5	-2.768e-5
-0.318	-3.242e-5	-2.897e-5
-0.319	-3.316e-5	-3.030e-5
-0.320	-3.391e-5	-3.166e-5
-0.321	-3.465e-5	-3.304e-5
-0.322	-3.540e-5	-3.446e-5
-0.323	-3.614e-5	-3.590e-5
-0.324	-3.687e-5	-3.738e-5
-0.325	-3.761e-5	-3.888e-5
-0.326	-3.836e-5	-4.042e-5
-0.327	-3.910e-5	-4.198e-5
-0.328	-3.984e-5	-4.357e-5
-0.329	-4.057e-5	-4.520e-5
-0.330	-4.130e-5	-4.685e-5
-0.331	-4.203e-5	-4.853e-5
-0.332	-4.275e-5	-5.024e-5
-0.333	-4.347e-5	-5.198e-5
-0.334	-4.419e-5	-5.375e-5
-0.335	-4.489e-5	-5.554e-5
-0.336	-4.559e-5	-5.737e-5
-0.337	-4.628e-5	-5.922e-5
-0.338	-4.696e-5	-6.110e-5
-0.339	-4.764e-5	-6.300e-5
-0.340	-4.830e-5	-6.493e-5
-0.341	-4.895e-5	-6.689e-5
-0.342	-4.959e-5	-6.888e-5
-0.343	-5.021e-5	-7.088e-5
-0.344	-5.083e-5	-7.292e-5
-0.345	-5.143e-5	-7.497e-5
-0.346	-5.201e-5	-7.705e-5
-0.347	-5.257e-5	-7.916e-5
-0.348	-5.312e-5	-8.128e-5
-0.349	-5.364e-5	-8.343e-5
-0.350	-5.415e-5	-8.559e-5
-0.351	-5.465e-5	-8.778e-5
-0.352	-5.513e-5	-8.999e-5
-0.353	-5.559e-5	-9.221e-5
-0.354	-5.602e-5	-9.445e-5
-0.355	-5.644e-5	-9.671e-5
-0.356	-5.683e-5	-9.898e-5
-0.357	-5.720e-5	-1.013e-4
-0.358	-5.754e-5	-1.036e-4
-0.359	-5.787e-5	-1.059e-4
-0.360	-5.817e-5	-1.082e-4
-0.361	-5.844e-5	-1.105e-4
-0.362	-5.869e-5	-1.129e-4
-0.363	-5.893e-5	-1.153e-4
-0.364	-5.913e-5	-1.176e-4
-0.365	-5.932e-5	-1.200e-4
-0.366	-5.948e-5	-1.224e-4
-0.367	-5.961e-5	-1.248e-4
-0.368	-5.973e-5	-1.271e-4
-0.369	-5.982e-5	-1.295e-4
-0.370	-5.988e-5	-1.319e-4
-0.371	-5.993e-5	-1.343e-4
-0.372	-5.995e-5	-1.367e-4
-0.373	-5.996e-5	-1.391e-4
-0.374	-5.994e-5	-1.415e-4
-0.375	-5.991e-5	-1.439e-4
-0.376	-5.985e-5	-1.463e-4
-0.377	-5.978e-5	-1.487e-4
-0.378	-5.969e-5	-1.511e-4
-0.379	-5.959e-5	-1.535e-4
-0.380	-5.946e-5	-1.559e-4
-0.381	-5.932e-5	-1.582e-4
-0.382	-5.917e-5	-1.606e-4
-0.383	-5.900e-5	-1.630e-4
-0.384	-5.882e-5	-1.653e-4
-0.385	-5.862e-5	-1.677e-4
-0.386	-5.842e-5	-1.700e-4
-0.387	-5.820e-5	-1.723e-4
-0.388	-5.797e-5	-1.746e-4
-0.389	-5.773e-5	-1.769e-4
-0.390	-5.749e-5	-1.792e-4
-0.391	-5.724e-5	-1.815e-4
-0.392	-5.698e-5	-1.838e-4
-0.393	-5.671e-5	-1.861e-4
-0.394	-5.644e-5	-1.883e-4
-0.395	-5.616e-5	-1.906e-4
-0.396	-5.587e-5	-1.928e-4
-0.397	-5.559e-5	-1.950e-4
-0.398	-5.529e-5	-1.973e-4
-0.399	-5.500e-5	-1.995e-4
-0.400	-5.470e-5	-2.016e-4
-0.401	-5.440e-5	-2.038e-4
-0.402	-5.410e-5	-2.060e-4
-0.403	-5.380e-5	-2.081e-4
-0.404	-5.349e-5	-2.103e-4
-0.405	-5.319e-5	-2.124e-4
-0.406	-5.288e-5	-2.145e-4
-0.407	-5.257e-5	-2.166e-4
-0.408	-5.227e-5	-2.187e-4
-0.409	-5.197e-5	-2.208e-4
-0.410	-5.166e-5	-2.229e-4
-0.411	-5.136e-5	-2.249e-4
-0.412	-5.105e-5	-2.270e-4
-0.413	-5.075e-5	-2.290e-4
-0.414	-5.045e-5	-2.310e-4
-0.415	-5.016e-5	-2.330e-4
-0.416	-4.986e-5	-2.350e-4
-0.417	-4.957e-5	-2.370e-4
-0.418	-4.928e-5	-2.390e-4
-0.419	-4.899e-5	-2.409e-4
-0.420	-4.870e-5	-2.429e-4
-0.421	-4.842e-5	-2.448e-4
-0.422	-4.814e-5	-2.467e-4
-0.423	-4.786e-5	-2.486e-4
-0.424	-4.758e-5	-2.505e-4
-0.425	-4.731e-5	-2.524e-4
-0.426	-4.704e-5	-2.543e-4
-0.427	-4.677e-5	-2.562e-4
-0.428	-4.651e-5	-2.580e-4
-0.429	-4.625e-5	-2.599e-4
-0.430	-4.599e-5	-2.617e-4
-0.431	-4.573e-5	-2.636e-4
-0.432	-4.548e-5	-2.654e-4
-0.433	-4.523e-5	-2.672e-4
-0.434	-4.499e-5	-2.690e-4
-0.435	-4.474e-5	-2.708e-4
-0.436	-4.450e-5	-2.726e-4
-0.437	-4.426e-5	-2.743e-4
-0.438	-4.403e-5	-2.761e-4
-0.439	-4.380e-5	-2.778e-4
-0.440	-4.357e-5	-2.796e-4
-0.441	-4.334e-5	-2.813e-4
-0.442	-4.312e-5	-2.831e-4
-0.443	-4.290e-5	-2.848e-4
-0.444	-4.268e-5	-2.865e-4
-0.445	-4.247e-5	-2.882e-4
-0.446	-4.226e-5	-2.899e-4
-0.447	-4.205e-5	-2.915e-4
-0.448	-4.184e-5	-2.932e-4
-0.449	-4.164e-5	-2.949e-4
-0.450	-4.144e-5	-2.965e-4
-0.451	-4.124e-5	-2.982e-4
-0.452	-4.105e-5	-2.998e-4
-0.453	-4.085e-5	-3.015e-4
-0.454	-4.066e-5	-3.031e-4
-0.455	-4.048e-5	-3.047e-4
-0.456	-4.029e-5	-3.063e-4
-0.457	-4.011e-5	-3.079e-4
-0.458	-3.993e-5	-3.095e-4
-0.459	-3.975e-5	-3.111e-4
-0.460	-3.957e-5	-3.127e-4
-0.461	-3.940e-5	-3.143e-4
-0.462	-3.923e-5	-3.158e-4
-0.463	-3.906e-5	-3.174e-4
-0.464	-3.890e-5	-3.190e-4
-0.465	-3.873e-5	-3.205e-4
-0.466	-3.857e-5	-3.221e-4
-0.467	-3.841e-5	-3.236e-4
-0.468	-3.825e-5	-3.251e-4
-0.469	-3.810e-5	-3.266e-4
-0.470	-3.794e-5	-3.282e-4
-0.471	-3.779e-5	-3.297e-4
-0.472	-3.764e-5	-3.312e-4
-0.473	-3.750e-5	-3.327e-4
-0.474	-3.735e-5	-3.342e-4
-0.475	-3.721e-5	-3.357e-4
-0.476	-3.706e-5	-3.371e-4
-0.477	-3.692e-5	-3.386e-4
-0.478	-3.679e-5	-3.401e-4
-0.479	-3.665e-5	-3.416e-4
-0.480	-3.652e-5	-3.430e-4
-0.481	-3.638e-5	-3.445e-4
-0.482	-3.625e-5	-3.459e-4
-0.483	-3.612e-5	-3.474e-4
-0.484	-3.599e-5	-3.488e-4
-0.485	-3.587e-5	-3.502e-4
-0.486	-3.574e-5	-3.517e-4
-0.487	-3.562e-5	-3.531e-4
-0.488	-3.550e-5	-3.545e-4
-0.489	-3.538e-5	-3.559e-4
-0.490	-3.526e-5	-3.573e-4
-0.491	-3.515e-5	-3.588e-4
-0.492	-3.503e-5	-3.602e-4
-0.493	-3.492e-5	-3.615e-4
-0.494	-3.480e-5	-3.629e-4
-0.495	-3.469e-5	-3.643e-4
-0.496	-3.458e-5	-3.657e-4
-0.497	-3.447e-5	-3.671e-4
-0.498	-3.437e-5	-3.685e-4
-0.499	-3.426e-5	-3.698e-4
-0.500	-3.416e-5	-3.712e-4
-0.501	-3.405e-5	-3.726e-4
-0.502	-3.395e-5	-3.739e-4
-0.503	-3.385e-5	-3.753e-4
-0.504	-3.375e-5	-3.766e-4
-0.505	-3.365e-5	-3.780e-4
-0.506	-3.355e-5	-3.793e-4
-0.507	-3.346e-5	-3.807e-4
-0.508	-3.336e-5	-3.820e-4
-0.509	-3.327e-5	-3.833e-4
-0.510	-3.318e-5	-3.846e-4
-0.511	-3.308e-5	-3.860e-4
-0.512	-3.299e-5	-3.873e-4
-0.513	-3.290e-5	-3.886e-4
-0.514	-3.281e-5	-3.899e-4
-0.515	-3.273e-5	-3.912e-4
-0.516	-3.264e-5	-3.925e-4
-0.517	-3.256e-5	-3.938e-4
-0.518	-3.247e-5	-3.951e-4
-0.519	-3.239e-5	-3.964e-4
-0.520	-3.230e-5	-3.977e-4
-0.521	-3.222e-5	-3.990e-4
-0.522	-3.214e-5	-4.003e-4
-0.523	-3.206e-5	-4.016e-4
-0.524	-3.198e-5	-4.029e-4
-0.525	-3.190e-5	-4.041e-4
-0.526	-3.182e-5	-4.054e-4
-0.527	-3.175e-5	-4.067e-4
-0.528	-3.167e-5	-4.079e-4
-0.529	-3.160e-5	-4.092e-4
-0.530	-3.152e-5	-4.105e-4
-0.531	-3.145e-5	-4.117e-4
-0.532	-3.137e-5	-4.130e-4
-0.533	-3.130e-5	-4.142e-4
-0.534	-3.123e-5	-4.155e-4
-0.535	-3.116e-5	-4.167e-4
-0.536	-3.109e-5	-4.180e-4
-0.537	-3.102e-5	-4.192e-4
-0.538	-3.095e-5	-4.204e-4
-0.539	-3.089e-5	-4.217e-4
-0.540	-3.082e-5	-4.229e-4
-0.541	-3.075e-5	-4.241e-4
-0.542	-3.069e-5	-4.254e-4
-0.543	-3.062e-5	-4.266e-4
-0.544	-3.056e-5	-4.278e-4
-0.545	-3.049e-5	-4.290e-4
-0.546	-3.043e-5	-4.303e-4
-0.547	-3.037e-5	-4.315e-4
-0.548	-3.031e-5	-4.327e-4
-0.549	-3.025e-5	-4.339e-4
-0.550	-3.018e-5	-4.351e-4
-0.551	-3.012e-5	-4.363e-4
-0.552	-3.007e-5	-4.375e-4
-0.553	-3.001e-5	-4.387e-4
-0.554	-2.995e-5	-4.399e-4
-0.555	-2.989e-5	-4.411e-4
-0.556	-2.983e-5	-4.423e-4
-0.557	-2.978e-5	-4.435e-4
-0.558	-2.972e-5	-4.447e-4
-0.559	-2.966e-5	-4.459e-4
-0.560	-2.961e-5	-4.470e-4
-0.561	-2.956e-5	-4.482e-4
-0.562	-2.950e-5	-4.494e-4
-0.563	-2.945e-5	-4.506e-4
-0.564	-2.940e-5	-4.518e-4
-0.565	-2.934e-5	-4.529e-4
-0.566	-2.929e-5	-4.541e-4
-0.567	-2.924e-5	-4.553e-4
-0.568	-2.919e-5	-4.564e-4
-0.569	-2.914e-5	-4.576e-4
-0.570	-2.909e-5	-4.588e-4
-0.571	-2.904e-5	-4.599e-4
-0.572	-2.899e-5	-4.611e-4
-0.573	-2.894e-5	-4.623e-4
-0.574	-2.889e-5	-4.634e-4
-0.575	-2.884e-5	-4.646e-4
-0.576	-2.880e-5	-4.657e-4
-0.577	-2.875e-5	-4.669e-4
-0.578	-2.870e-5	-4.680e-4
-0.579	-2.865e-5	-4.692e-4
-0.580	-2.861e-5	-4.703e-4
-0.581	-2.856e-5	-4.714e-4
-0.582	-2.852e-5	-4.726e-4
-0.583	-2.847e-5	-4.737e-4
-0.584	-2.843e-5	-4.749e-4
-0.585	-2.838e-5	-4.760e-4
-0.586	-2.834e-5	-4.771e-4
-0.587	-2.830e-5	-4.783e-4
-0.588	-2.825e-5	-4.794e-4
-0.589	-2.821e-5	-4.805e-4
-0.590	-2.817e-5	-4.817e-4
-0.591	-2.813e-5	-4.828e-4
-0.592	-2.809e-5	-4.839e-4
-0.593	-2.804e-5	-4.850e-4
-0.594	-2.800e-5	-4.861e-4
-0.595	-2.796e-5	-4.873e-4
-0.596	-2.792e-5	-4.884e-4
-0.597	-2.788e-5	-4.895e-4
-0.598	-2.784e-5	-4.906e-4
-0.599	-2.780e-5	-4.917e-4
-0.600	-2.771e-5	-1.108e-6
-0.599	-2.764e-5	-2.214e-6
-0.598	-2.757e-5	-3.317e-6
-0.597	-2.751e-5	-4.417e-6
-0.596	-2.746e-5	-5.516e-6
-0.595	-2.741e-5	-6.612e-6
-0.594	-2.736e-5	-7.707e-6
-0.593	-2.731e-5	-8.799e-6
-0.592	-2.727e-5	-9.890e-6
-0.591	-2.722e-5	-1.098e-5
-0.590	-2.718e-5	-1.207e-5
-0.589	-2.713e-5	-1.315e-5
-0.588	-2.709e-5	-1.423e-5
-0.587	-2.704e-5	-1.532e-5
-0.586	-2.700e-5	-1.640e-5
-0.585	-2.696e-5	-1.747e-5
-0.584	-2.692e-5	-1.855e-5
-0.583	-2.688e-5	-1.963e-5
-0.582	-2.684e-5	-2.070e-5
-0.581	-2.679e-5	-2.177e-5
-0.580	-2.675e-5	-2.284e-5
-0.579	-2.672e-5	-2.391e-5
-0.578	-2.668e-5	-2.498e-5
-0.577	-2.664e-5	-2.604e-5
-0.576	-2.660e-5	-2.711e-5
-0.575	-2.656e-5	-2.817e-5
-0.574	-2.652e-5	-2.923e-5
-0.573	-2.648e-5	-3.029e-5
-0.572	-2.645e-5	-3.135e-5
-0.571	-2.641e-5	-3.240e-5
-0.570	-2.638e-5	-3.346e-5
-0.569	-2.634e-5	-3.451e-5
-0.568	-2.630e-5	-3.556e-5
-0.567	-2.627e-5	-3.662e-5
-0.566	-2.623e-5	-3.766e-5
-0.565	-2.620e-5	-3.871e-5
-0.564	-2.616e-5	-3.976e-5
-0.563	-2.613e-5	-4.080e-5
-0.562	-2.609e-5	-4.185e-5
-0.561	-2.606e-5	-4.289e-5
-0.560	-2.602e-5	-4.393e-5
-0.559	-2.599e-5	-4.497e-5
-0.558	-2.596e-5	-4.601e-5
-0.557	-2.592e-5	-4.705e-5
-0.556	-2.589e-5	-4.808e-5
-0.555	-2.586e-5	-4.912e-5
-0.554	-2.582e-5	-5.015e-5
-0.553	-2.579e-5	-5.118e-5
-0.552	-2.576e-5	-5.221e-5
-0.551	-2.573e-5	-5.324e-5
-0.550	-2.570e-5	-5.427e-5
-0.549	-2.566e-5	-5.529e-5
-0.548	-2.563e-5	-5.632e-5
-0.547	-2.560e-5	-5.734e-5
-0.546	-2.557e-5	-5.837e-5
-0.545	-2.554e-5	-5.939e-5
-0.544	-2.551e-5	-6.041e-5
-0.543	-2.548e-5	-6.143e-5
-0.542	-2.545e-5	-6.245e-5
-0.541	-2.542e-5	-6.346e-5
-0.540	-2.539e-5	-6.448e-5
-0.539	-2.536e-5	-6.549e-5
-0.538	-2.533e-5	-6.650e-5
-0.537	-2.529e-5	-6.752e-5
-0.536	-2.526e-5	-6.853e-5
-0.535	-2.523e-5	-6.954e-5
-0.534	-2.520e-5	-7.054e-5
-0.533	-2.517e-5	-7.155e-5
-0.532	-2.514e-5	-7.256e-5
-0.531	-2.512e-5	-7.356e-5
-0.530	-2.509e-5	-7.457e-5
-0.529	-2.506e-5	-7.557e-5
-0.528	-2.503e-5	-7.657e-5
-0.527	-2.500e-5	-7.757e-5
-0.526	-2.497e-5	-7.857e-5
-0.525	-2.494e-5	-7.957e-5
-0.524	-2.491e-5	-8.056e-5
-0.523	-2.488e-5	-8.156e-5
-0.522	-2.485e-5	-8.255e-5
-0.521	-2.482e-5	-8.354e-5
-0.520	-2.479e-5	-8.454e-5
-0.519	-2.477e-5	-8.553e-5
-0.518	-2.474e-5	-8.652e-5
-0.517	-2.471e-5	-8.750e-5
-0.516	-2.468e-5	-8.849e-5
-0.515	-2.465e-5	-8.948e-5
-0.514	-2.462e-5	-9.046e-5
-0.513	-2.459e-5	-9.145e-5
-0.512	-2.456e-5	-9.243e-5
-0.511	-2.453e-5	-9.341e-5
-0.510	-2.450e-5	-9.439e-5
-0.509	-2.447e-5	-9.537e-5
-0.508	-2.444e-5	-9.635e-5
-0.507	-2.441e-5	-9.732e-5
-0.506	-2.438e-5	-9.830e-5
-0.505	-2.435e-5	-9.927e-5
-0.504	-2.432e-5	-1.002e-4
-0.503	-2.429e-5	-1.012e-4
-0.502	-2.426e-5	-1.022e-4
-0.501	-2.423e-5	-1.032e-4
-0.500	-2.420e-5	-1.041e-4
-0.499	-2.417e-5	-1.051e-4
-0.498	-2.414e-5	-1.061e-4
-0.497	-2.411e-5	-1.070e-4
-0.496	-2.407e-5	-1.080e-4
-0.495	-2.404e-5	-1.089e-4
-0.494	-2.401e-5	-1.099e-4
-0.493	-2.398e-5	-1.109e-4
-0.492	-2.394e-5	-1.118e-4
-0.491	-2.391e-5	-1.128e-4
-0.490	-2.388e-5	-1.137e-4
-0.489	-2.384e-5	-1.147e-4
-0.488	-2.381e-5	-1.156e-4
-0.487	-2.377e-5	-1.166e-4
-0.486	-2.374e-5	-1.175e-4
-0.485	-2.370e-5	-1.185e-4
-0.484	-2.367e-5	-1.194e-4
-0.483	-2.363e-5	-1.204e-4
-0.482	-2.359e-5	-1.213e-4
-0.481	-2.355e-5	-1.223e-4
-0.480	-2.351e-5	-1.232e-4
-0.479	-2.347e-5	-1.241e-4
-0.478	-2.343e-5	-1.251e-4
-0.477	-2.339e-5	-1.260e-4
-0.476	-2.335e-5	-1.270e-4
-0.475	-2.331e-5	-1.279e-4
-0.474	-2.327e-5	-1.288e-4
-0.473	-2.323e-5	-1.297e-4
-0.472	-2.318e-5	-1.307e-4
-0.471	-2.314e-5	-1.316e-4
-0.470	-2.309e-5	-1.325e-4
-0.469	-2.304e-5	-1.334e-4
-0.468	-2.299e-5	-1.344e-4
-0.467	-2.295e-5	-1.353e-4
-0.466	-2.290e-5	-1.362e-4
-0.465	-2.284e-5	-1.371e-4
-0.464	-2.279e-5	-1.380e-4
-0.463	-2.274e-5	-1.389e-4
-0.462	-2.268e-5	-1.398e-4
-0.461	-2.263e-5	-1.407e-4
-0.460	-2.257e-5	-1.416e-4
-0.459	-2.251e-5	-1.425e-4
-0.458	-2.245e-5	-1.434e-4
-0.457	-2.239e-5	-1.443e-4
-0.456	-2.232e-5	-1.452e-4
-0.455	-2.226e-5	-1.461e-4
-0.454	-2.219e-5	-1.470e-4
-0.453	-2.212e-5	-1.479e-4
-0.452	-2.205e-5	-1.488e-4
-0.451	-2.198e-5	-1.497e-4
-0.450	-2.190e-5	-1.505e-4
-0.449	-2.183e-5	-1.514e-4
-0.448	-2.175e-5	-1.523e-4
-0.447	-2.167e-5	-1.531e-4
-0.446	-2.158e-5	-1.540e-4
-0.445	-2.150e-5	-1.549e-4
-0.444	-2.141e-5	-1.557e-4
-0.443	-2.132e-5	-1.566e-4
-0.442	-2.123e-5	-1.574e-4
-0.441	-2.113e-5	-1.583e-4
-0.440	-2.103e-5	-1.591e-4
-0.439	-2.093e-5	-1.599e-4
-0.438	-2.082e-5	-1.608e-4
-0.437	-2.071e-5	-1.616e-4
-0.436	-2.060e-5	-1.624e-4
-0.435	-2.049e-5	-1.633e-4
-0.434	-2.037e-5	-1.641e-4
-0.433	-2.025e-5	-1.649e-4
-0.432	-2.012e-5	-1.657e-4
-0.431	-1.999e-5	-1.665e-4
-0.430	-1.986e-5	-1.673e-4
-0.429	-1.972e-5	-1.681e-4
-0.428	-1.958e-5	-1.688e-4
-0.427	-1.943e-5	-1.696e-4
-0.426	-1.928e-5	-1.704e-4
-0.425	-1.912e-5	-1.712e-4
-0.424	-1.896e-5	-1.719e-4
-0.423	-1.879e-5	-1.727e-4
-0.422	-1.862e-5	-1.734e-4
-0.421	-1.844e-5	-1.742e-4
-0.420	-1.826e-5	-1.749e-4
-0.419	-1.807e-5	-1.756e-4
-0.418	-1.788e-5	-1.763e-4
-0.417	-1.767e-5	-1.770e-4
-0.416	-1.746e-5	-1.777e-4
-0.415	-1.725e-5	-1.784e-4
-0.414	-1.703e-5	-1.791e-4
-0.413	-1.680e-5	-1.798e-4
-0.412	-1.656e-5	-1.804e-4
-0.411	-1.632e-5	-1.811e-4
-0.410	-1.607e-5	-1.817e-4
-0.409	-1.581e-5	-1.824e-4
-0.408	-1.554e-5	-1.830e-4
-0.407	-1.526e-5	-1.836e-4
-0.406	-1.498e-5	-1.842e-4
-0.405	-1.469e-5	-1.848e-4
-0.404	-1.438e-5	-1.854e-4
-0.403	-1.407e-5	-1.859e-4
-0.402	-1.375e-5	-1.865e-4
-0.401	-1.342e-5	-1.870e-4
-0.400	-1.308e-5	-1.875e-4
-0.399	-1.273e-5	-1.880e-4
-0.398	-1.236e-5	-1.885e-4
-0.397	-1.199e-5	-1.890e-4
-0.396	-1.161e-5	-1.895e-4
-0.395	-1.121e-5	-1.899e-4
-0.394	-1.081e-5	-1.904e-4
-0.393	-1.039e-5	-1.908e-4
-0.392	-9.963e-6	-1.912e-4
-0.391	-9.523e-6	-1.916e-4
-0.390	-9.072e-6	-1.919e-4
-0.389	-8.610e-6	-1.923e-4
-0.388	-8.136e-6	-1.926e-4
-0.387	-7.652e-6	-1.929e-4
-0.386	-7.155e-6	-1.932e-4
-0.385	-6.644e-6	-1.934e-4
-0.384	-6.121e-6	-1.937e-4
-0.383	-5.585e-6	-1.939e-4
-0.382	-5.040e-6	-1.941e-4
-0.381	-4.485e-6	-1.943e-4
-0.380	-3.920e-6	-1.944e-4
-0.379	-3.343e-6	-1.946e-4
-0.378	-2.754e-6	-1.947e-4
-0.377	-2.154e-6	-1.948e-4
-0.376	-1.545e-6	-1.948e-4
-0.375	-9.266e-7	-1.949e-4
-0.374	-2.994e-7	-1.949e-4
-0.373	3.376e-7	-1.949e-4
-0.372	9.845e-7	-1.948e-4
-0.371	1.639e-6	-1.948e-4
-0.370	2.301e-6	-1.947e-4
-0.369	2.968e-6	-1.946e-4
-0.368	3.641e-6	-1.944e-4
-0.367	4.322e-6	-1.942e-4
-0.366	5.007e-6	-1.940e-4
-0.365	5.697e-6	-1.938e-4
-0.364	6.390e-6	-1.936e-4
-0.363	7.083e-6	-1.933e-4
-0.362	7.776e-6	-1.930e-4
-0.361	8.470e-6	-1.926e-4
-0.360	9.166e-6	-1.923e-4
-0.359	9.863e-6	-1.919e-4
-0.358	1.056e-5	-1.914e-4
-0.357	1.125e-5	-1.910e-4
-0.356	1.193e-5	-1.905e-4
-0.355	1.261e-5	-1.900e-4
-0.354	1.329e-5	-1.895e-4
-0.353	1.396e-5	-1.889e-4
-0.352	1.462e-5	-1.883e-4
-0.351	1.528e-5	-1.877e-4
-0.350	1.592e-5	-1.871e-4
-0.349	1.656e-5	-1.864e-4
-0.348	1.718e-5	-1.857e-4
-0.347	1.779e-5	-1.850e-4
-0.346	1.839e-5	-1.843e-4
-0.345	1.898e-5	-1.835e-4
-0.344	1.955e-5	-1.827e-4
-0.343	2.011e-5	-1.819e-4
-0.342	2.066e-5	-1.811e-4
-0.341	2.119e-5	-1.803e-4
-0.340	2.170e-5	-1.794e-4
-0.339	2.220e-5	-1.785e-4
-0.338	2.269e-5	-1.776e-4
-0.337	2.315e-5	-1.767e-4
-0.336	2.360e-5	-1.757e-4
-0.335	2.403e-5	-1.748e-4
-0.334	2.444e-5	-1.738e-4
-0.333	2.484e-5	-1.728e-4
-0.332	2.522e-5	-1.718e-4
-0.331	2.558e-5	-1.708e-4
-0.330	2.592e-5	-1.697e-4
-0.329	2.625e-5	-1.687e-4
-0.328	2.655e-5	-1.676e-4
-0.327	2.684e-5	-1.666e-4
-0.326	2.711e-5	-1.655e-4
-0.325	2.737e-5	-1.644e-4
-0.324	2.761e-5	-1.633e-4
-0.323	2.783e-5	-1.622e-4
-0.322	2.803e-5	-1.610e-4
-0.321	2.822e-5	-1.599e-4
-0.320	2.839e-5	-1.588e-4
-0.319	2.855e-5	-1.576e-4
-0.318	2.869e-5	-1.565e-4
-0.317	2.882e-5	-1.553e-4
-0.316	2.894e-5	-1.542e-4
-0.315	2.904e-5	-1.530e-4
-0.314	2.912e-5	-1.518e-4
-0.313	2.920e-5	-1.507e-4
-0.312	2.926e-5	-1.495e-4
-0.311	2.930e-5	-1.483e-4
-0.310	2.934e-5	-1.472e-4
-0.309	2.936e-5	-1.460e-4
-0.308	2.938e-5	-1.448e-4
-0.307	2.939e-5	-1.436e-4
-0.306	2.938e-5	-1.425e-4
-0.305	2.937e-5	-1.413e-4
-0.304	2.934e-5	-1.401e-4
-0.303	2.930e-5	-1.389e-4
-0.302	2.926e-5	-1.378e-4
-0.301	2.921e-5	-1.366e-4
-0.300	2.915e-5	-1.354e-4
-0.299	2.909e-5	-1.343e-4
-0.298	2.901e-5	-1.331e-4
-0.297	2.893e-5	-1.320e-4
-0.296	2.885e-5	-1.308e-4
-0.295	2.876e-5	-1.296e-4
-0.294	2.867e-5	-1.285e-4
-0.293	2.857e-5	-1.274e-4
-0.292	2.847e-5	-1.262e-4
-0.291	2.836e-5	-1.251e-4
-0.290	2.825e-5	-1.240e-4
-0.289	2.814e-5	-1.228e-4
-0.288	2.802e-5	-1.217e-4
-0.287	2.790e-5	-1.206e-4
-0.286	2.778e-5	-1.195e-4
-0.285	2.765e-5	-1.184e-4
-0.284	2.753e-5	-1.173e-4
-0.283	2.740e-5	-1.162e-4
-0.282	2.727e-5	-1.151e-4
-0.281	2.714e-5	-1.140e-4
-0.280	2.701e-5	-1.129e-4
-0.279	2.687e-5	-1.118e-4
-0.278	2.674e-5	-1.108e-4
-0.277	2.660e-5	-1.097e-4
-0.276	2.647e-5	-1.087e-4
-0.275	2.633e-5	-1.076e-4
-0.274	2.619e-5	-1.066e-4
-0.273	2.606e-5	-1.055e-4
-0.272	2.592e-5	-1.045e-4
-0.271	2.578e-5	-1.034e-4
-0.270	2.564e-5	-1.024e-4
-0.269	2.550e-5	-1.014e-4
-0.268	2.537e-5	-1.004e-4
-0.267	2.523e-5	-9.937e-5
-0.266	2.510e-5	-9.837e-5
-0.265	2.496e-5	-9.737e-5
-0.264	2.482e-5	-9.638e-5
-0.263	2.469e-5	-9.539e-5
-0.262	2.455e-5	-9.441e-5
-0.261	2.442e-5	-9.343e-5
-0.260	2.428e-5	-9.246e-5
-0.259	2.414e-5	-9.149e-5
-0.258	2.401e-5	-9.053e-5
-0.257	2.387e-5	-8.958e-5
-0.256	2.374e-5	-8.863e-5
-0.255	2.361e-5	-8.768e-5
-0.254	2.347e-5	-8.674e-5
-0.253	2.334e-5	-8.581e-5
-0.252	2.320e-5	-8.488e-5
-0.251	2.307e-5	-8.396e-5
-0.250	2.293e-5	-8.304e-5
-0.249	2.280e-5	-8.213e-5
-0.248	2.267e-5	-8.122e-5
-0.247	2.253e-5	-8.032e-5
-0.246	2.240e-5	-7.943e-5
-0.245	2.226e-5	-7.854e-5
-0.244	2.213e-5	-7.765e-5
-0.243	2.200e-5	-7.677e-5
-0.242	2.186e-5	-7.590e-5
-0.241	2.173e-5	-7.503e-5
-0.240	2.159e-5	-7.416e-5
-0.239	2.146e-5	-7.331e-5
-0.238	2.132e-5	-7.245e-5
-0.237	2.119e-5	-7.160e-5
-0.236	2.105e-5	-7.076e-5
-0.235	2.092e-5	-6.993e-5
-0.234	2.078e-5	-6.909e-5
-0.233	2.065e-5	-6.827e-5
-0.232	2.051e-5	-6.745e-5
-0.231	2.037e-5	-6.663e-5
-0.230	2.024e-5	-6.582e-5
-0.229	2.010e-5	-6.502e-5
-0.228	1.996e-5	-6.422e-5
-0.227	1.983e-5	-6.343e-5
-0.226	1.969e-5	-6.264e-5
-0.225	1.955e-5	-6.186e-5
-0.224	1.941e-5	-6.108e-5
-0.223	1.928e-5	-6.031e-5
-0.222	1.914e-5	-5.955e-5
-0.221	1.900e-5	-5.879e-5
-0.220	1.886e-5	-5.803e-5
-0.219	1.873e-5	-5.728e-5
-0.218	1.859e-5	-5.654e-5
-0.217	1.845e-5	-5.580e-5
-0.216	1.831e-5	-5.507e-5
-0.215	1.818e-5	-5.434e-5
-0.214	1.804e-5	-5.362e-5
-0.213	1.790e-5	-5.290e-5
-0.212	1.777e-5	-5.219e-5
-0.211	1.763e-5	-5.149e-5
-0.210	1.750e-5	-5.079e-5
-0.209	1.736e-5	-5.009e-5
-0.208	1.723e-5	-4.940e-5
-0.207	1.710e-5	-4.872e-5
-0.206	1.696e-5	-4.804e-5
-0.205	1.683e-5	-4.737e-5
-0.204	1.670e-5	-4.670e-5
-0.203	1.657e-5	-4.604e-5
-0.202	1.644e-5	-4.538e-5
-0.201	1.631e-5	-4.473e-5
-0.200	1.618e-5	-4.408e-5
-0.199	1.605e-5	-4.344e-5
-0.198	1.592e-5	-4.280e-5
-0.197	1.580e-5	-4.217e-5
-0.196	1.567e-5	-4.154e-5
-0.195	1.555e-5	-4.092e-5
-0.194	1.542e-5	-4.030e-5
-0.193	1.530e-5	-3.969e-5
-0.192	1.518e-5	-3.908e-5
-0.191	1.505e-5	-3.848e-5
-0.190	1.493e-5	-3.789e-5
-0.189	1.481e-5	-3.729e-5
-0.188	1.470e-5	-3.670e-5
-0.187	1.458e-5	-3.612e-5
-0.186	1.446e-5	-3.554e-5
-0.185	1.435e-5	-3.497e-5
-0.184	1.423e-5	-3.440e-5
-0.183	1.412e-5	-3.384e-5
-0.182	1.401e-5	-3.327e-5
-0.181	1.389e-5	-3.272e-5
-0.180	1.378e-5	-3.217e-5
-0.179	1.367e-5	-3.162e-5
-0.178	1.356e-5	-3.108e-5
-0.177	1.346e-5	-3.054e-5
-0.176	1.335e-5	-3.001e-5
-0.175	1.324e-5	-2.948e-5
-0.174	1.314e-5	-2.895e-5
-0.173	1.303e-5	-2.843e-5
-0.172	1.293e-5	-2.791e-5
-0.171	1.283e-5	-2.740e-5
-0.170	1.273e-5	-2.689e-5
-0.169	1.263e-5	-2.638e-5
-0.168	1.253e-5	-2.588e-5
-0.167	1.243e-5	-2.539e-5
-0.166	1.234e-5	-2.489e-5
-0.165	1.224e-5	-2.440e-5
-0.164	1.215e-5	-2.392e-5
-0.163	1.205e-5	-2.343e-5
-0.162	1.196e-5	-2.296e-5
-0.161	1.187e-5	-2.248e-5
-0.160	1.178e-5	-2.201e-5
-0.159	1.169e-5	-2.154e-5
-0.158	1.160e-5	-2.108e-5
-0.157	1.151e-5	-2.062e-5
-0.156	1.142e-5	-2.016e-5
-0.155	1.134e-5	-1.971e-5
-0.154	1.126e-5	-1.926e-5
-0.153	1.117e-5	-1.881e-5
-0.152	1.109e-5	-1.837e-5
-0.151	1.101e-5	-1.793e-5
-0.150	1.093e-5	-1.749e-5
-0.149	1.085e-5	-1.706e-5
-0.148	1.077e-5	-1.663e-5
-0.147	1.069e-5	-1.620e-5
-0.146	1.061e-5	-1.577e-5
-0.145	1.054e-5	-1.535e-5
-0.144	1.046e-5	-1.493e-5
-0.143	1.039e-5	-1.452e-5
-0.142	1.031e-5	-1.411e-5
-0.141	1.024e-5	-1.370e-5
-0.140	1.017e-5	-1.329e-5
-0.139	1.010e-5	-1.289e-5
-0.138	1.003e-5	-1.248e-5
-0.137	9.961e-6	-1.209e-5
-0.136	9.894e-6	-1.169e-5
-0.135	9.828e-6	-1.130e-5
-0.134	9.764e-6	-1.091e-5
-0.133	9.699e-6	-1.052e-5
-0.132	9.636e-6	-1.013e-5
-0.131	9.574e-6	-9.750e-6
-0.130	9.513e-6	-9.370e-6
-0.129	9.453e-6	-8.992e-6
-0.128	9.393e-6	-8.616e-6
-0.127	9.335e-6	-8.242e-6
-0.126	9.278e-6	-7.871e-6
-0.125	9.222e-6	-7.502e-6
-0.124	9.167e-6	-7.136e-6
-0.123	9.112e-6	-6.771e-6
-0.122	9.059e-6	-6.409e-6
-0.121	9.007e-6	-6.049e-6
-0.120	8.955e-6	-5.690e-6
-0.119	8.905e-6	-5.334e-6
-0.118	8.855e-6	-4.980e-6
-0.117	8.806e-6	-4.628e-6
-0.116	8.758e-6	-4.278e-6
-0.115	8.711e-6	-3.929e-6
-0.114	8.664e-6	-3.583e-6
-0.113	8.618e-6	-3.238e-6
-0.112	8.572e-6	-2.895e-6
-0.111	8.527e-6	-2.554e-6
-0.110	8.483e-6	-2.215e-6
-0.109	8.439e-6	-1.877e-6
-0.108	8.396e-6	-1.541e-6
-0.107	8.353e-6	-1.207e-6
-0.106	8.310e-6	-8.746e-7
-0.105	8.268e-6	-5.439e-7
-0.104	8.226e-6	-2.149e-7
-0.103	8.184e-6	1.125e-7
-0.102	8.142e-6	4.382e-7
-0.101	8.099e-6	7.621e-7
-0.100	8.057e-6	1.084e-6
-0.099	8.014e-6	1.405e-6
-0.098	7.971e-6	1.724e-6
-0.097	7.929e-6	2.041e-6
-0.096	7.885e-6	2.356e-6
-0.095	7.842e-6	2.670e-6
-0.094	7.798e-6	2.982e-6
-0.093	7.754e-6	3.292e-6
-0.092	7.710e-6	3.601e-6
-0.091	7.666e-6	3.907e-6
-0.090	7.622e-6	4.212e-6
-0.089	7.577e-6	4.515e-6
-0.088	7.532e-6	4.816e-6
-0.087	7.488e-6	5.116e-6
-0.086	7.442e-6	5.414e-6
-0.085	7.397e-6	5.710e-6
-0.084	7.352e-6	6.004e-6
-0.083	7.307e-6	6.296e-6
-0.082	7.262e-6	6.586e-6
-0.081	7.217e-6	6.875e-6
-0.080	7.172e-6	7.162e-6
-0.079	7.127e-6	7.447e-6
-0.078	7.081e-6	7.730e-6
-0.077	7.036e-6	8.012e-6
-0.076	6.991e-6	8.291e-6
-0.075	6.947e-6	8.569e-6
-0.074	6.902e-6	8.845e-6
-0.073	6.858e-6	9.120e-6
-0.072	6.814e-6	9.392e-6
-0.071	6.771e-6	9.663e-6
-0.070	6.728e-6	9.932e-6
-0.069	6.685e-6	1.020e-5
-0.068	6.643e-6	1.047e-5
-0.067	6.600e-6	1.073e-5
-0.066	6.558e-6	1.099e-5
-0.065	6.516e-6	1.125e-5
-0.064	6.475e-6	1.151e-5
-0.063	6.434e-6	1.177e-5
-0.062	6.393e-6	1.202e-5
-0.061	6.352e-6	1.228e-5
-0.060	6.312e-6	1.253e-5
-0.059	6.272e-6	1.278e-5
-0.058	6.232e-6	1.303e-5
-0.057	6.193e-6	1.328e-5
-0.056	6.154e-6	1.352e-5
-0.055	6.115e-6	1.377e-5
-0.054	6.077e-6	1.401e-5
-0.053	6.040e-6	1.425e-5
-0.052	6.002e-6	1.449e-5
-0.051	5.965e-6	1.473e-5
-0.050	5.929e-6	1.497e-5
-0.049	5.892e-6	1.521e-5
-0.048	5.856e-6	1.544e-5
-0.047	5.820e-6	1.567e-5
-0.046	5.784e-6	1.590e-5
-0.045	5.749e-6	1.613e-5
-0.044	5.714e-6	1.636e-5
-0.043	5.680e-6	1.659e-5
-0.042	5.646e-6	1.682e-5
-0.041	5.612e-6	1.704e-5
-0.040	5.578e-6	1.726e-5
-0.039	5.545e-6	1.749e-5
-0.038	5.511e-6	1.771e-5
-0.037	5.478e-6	1.792e-5
-0.036	5.446e-6	1.814e-5
-0.035	5.413e-6	1.836e-5
-0.034	5.381e-6	1.857e-5
-0.033	5.349e-6	1.879e-5
-0.032	5.318e-6	1.900e-5
-0.031	5.287e-6	1.921e-5
-0.030	5.256e-6	1.942e-5
-0.029	5.226e-6	1.963e-5
-0.028	5.195e-6	1.984e-5
-0.027	5.165e-6	2.005e-5
-0.026	5.135e-6	2.025e-5
-0.025	5.106e-6	2.046e-5
-0.024	5.077e-6	2.066e-5
-0.023	5.049e-6	2.086e-5
-0.022	5.020e-6	2.106e-5
-0.021	4.991e-6	2.126e-5
-0.020	4.963e-6	2.146e-5
-0.019	4.934e-6	2.166e-5
-0.018	4.906e-6	2.185e-5
-0.017	4.879e-6	2.205e-5
-0.016	4.851e-6	2.224e-5
-0.015	4.824e-6	2.244e-5
-0.014	4.797e-6	2.263e-5
-0.013	4.770e-6	2.282e-5
-0.012	4.743e-6	2.301e-5
-0.011	4.717e-6	2.320e-5
-0.010	4.690e-6	2.338e-5
-0.009	4.664e-6	2.357e-5
-0.008	4.638e-6	2.376e-5
-0.007	4.612e-6	2.394e-5
-0.006	4.587e-6	2.412e-5
-0.005	4.561e-6	2.431e-5
-0.004	4.536e-6	2.449e-5
-0.003	4.512e-6	2.467e-5
-0.002	4.487e-6	2.485e-5
-0.001	4.463e-6	2.503e-5
-0.000	4.316e-6	1.726e-7
-0.001	4.227e-6	3.417e-7
-0.002	4.151e-6	5.077e-7
-0.003	4.087e-6	6.712e-7
-0.004	4.040e-6	8.328e-7
-0.005	4.001e-6	9.929e-7
-0.006	3.965e-6	1.151e-6
-0.007	3.927e-6	1.309e-6
-0.008	3.890e-6	1.464e-6
-0.009	3.855e-6	1.618e-6
-0.010	3.821e-6	1.771e-6
-0.011	3.788e-6	1.923e-6
-0.012	3.756e-6	2.073e-6
-0.013	3.724e-6	2.222e-6
-0.014	3.693e-6	2.370e-6
-0.015	3.663e-6	2.516e-6
-0.016	3.633e-6	2.662e-6
-0.017	3.603e-6	2.806e-6
-0.018	3.574e-6	2.949e-6
-0.019	3.546e-6	3.090e-6
-0.020	3.518e-6	3.231e-6
-0.021	3.490e-6	3.371e-6
-0.022	3.463e-6	3.509e-6
-0.023	3.436e-6	3.647e-6
-0.024	3.409e-6	3.783e-6
-0.025	3.382e-6	3.918e-6
-0.026	3.356e-6	4.053e-6
-0.027	3.330e-6	4.186e-6
-0.028	3.304e-6	4.318e-6
-0.029	3.278e-6	4.449e-6
-0.030	3.253e-6	4.579e-6
-0.031	3.228e-6	4.708e-6
-0.032	3.203e-6	4.836e-6
-0.033	3.178e-6	4.964e-6
-0.034	3.154e-6	5.090e-6
-0.035	3.129e-6	5.215e-6
-0.036	3.105e-6	5.339e-6
-0.037	3.081e-6	5.462e-6
-0.038	3.057e-6	5.585e-6
-0.039	3.033e-6	5.706e-6
-0.040	3.010e-6	5.826e-6
-0.041	2.986e-6	5.946e-6
-0.042	2.963e-6	6.064e-6
-0.043	2.940e-6	6.182e-6
-0.044	2.917e-6	6.299e-6
-0.045	2.895e-6	6.414e-6
-0.046	2.872e-6	6.529e-6
-0.047	2.849e-6	6.643e-6
-0.048	2.827e-6	6.756e-6
-0.049	2.804e-6	6.868e-6
-0.050	2.782e-6	6.980e-6
-0.051	2.760e-6	7.090e-6
-0.052	2.738e-6	7.200e-6
-0.053	2.716e-6	7.308e-6
-0.054	2.694e-6	7.416e-6
-0.055	2.672e-6	7.523e-6
-0.056	2.650e-6	7.629e-6
-0.057	2.627e-6	7.734e-6
-0.058	2.605e-6	7.838e-6
-0.059	2.584e-6	7.941e-6
-0.060	2.562e-6	8.044e-6
-0.061	2.540e-6	8.146e-6
-0.062	2.518e-6	8.246e-6
-0.063	2.496e-6	8.346e-6
-0.064	2.474e-6	8.445e-6
-0.065	2.452e-6	8.543e-6
-0.066	2.430e-6	8.640e-6
-0.067	2.407e-6	8.737e-6
-0.068	2.385e-6	8.832e-6
-0.069	2.362e-6	8.926e-6
-0.070	2.339e-6	9.020e-6
-0.071	2.316e-6	9.113e-6
-0.072	2.293e-6	9.204e-6
-0.073	2.270e-6	9.295e-6
-0.074	2.246e-6	9.385e-6
-0.075	2.223e-6	9.474e-6
-0.076	2.199e-6	9.562e-6
-0.077	2.175e-6	9.649e-6
-0.078	2.151e-6	9.735e-6
-0.079	2.127e-6	9.820e-6
-0.080	2.102e-6	9.904e-6
-0.081	2.078e-6	9.987e-6
-0.082	2.052e-6	1.007e-5
-0.083	2.027e-6	1.015e-5
-0.084	2.002e-6	1.023e-5
-0.085	1.976e-6	1.031e-5
-0.086	1.951e-6	1.039e-5
-0.087	1.925e-6	1.046e-5
-0.088	1.899e-6	1.054e-5
-0.089	1.873e-6	1.062e-5
-0.090	1.847e-6	1.069e-5
-0.091	1.820e-6	1.076e-5
-0.092	1.793e-6	1.083e-5
-0.093	1.767e-6	1.090e-5
-0.094	1.740e-6	1.097e-5
-0.095	1.714e-6	1.104e-5
-0.096	1.687e-6	1.111e-5
-0.097	1.661e-6	1.118e-5
-0.098	1.635e-6	1.124e-5
-0.099	1.609e-6	1.131e-5
-0.100	1.584e-6	1.137e-5
-0.101	1.558e-6	1.143e-5
-0.102	1.533e-6	1.149e-5
-0.103	1.509e-6	1.155e-5
-0.104	1.485e-6	1.161e-5
-0.105	1.462e-6	1.167e-5
-0.106	1.439e-6	1.173e-5
-0.107	1.417e-6	1.179e-5
-0.108	1.395e-6	1.184e-5
-0.109	1.375e-6	1.190e-5
-0.110	1.354e-6	1.195e-5
-0.111	1.335e-6	1.200e-5
-0.112	1.316e-6	1.206e-5
-0.113	1.298e-6	1.211e-5
-0.114	1.280e-6	1.216e-5
-0.115	1.263e-6	1.221e-5
-0.116	1.246e-6	1.226e-5
-0.117	1.231e-6	1.231e-5
-0.118	1.215e-6	1.236e-5
-0.119	1.200e-6	1.241e-5
-0.120	1.186e-6	1.245e-5
-0.121	1.172e-6	1.250e-5
-0.122	1.159e-6	1.255e-5
-0.123	1.146e-6	1.259e-5
-0.124	1.133e-6	1.264e-5
-0.125	1.121e-6	1.268e-5
-0.126	1.109e-6	1.273e-5
-0.127	1.098e-6	1.277e-5
-0.128	1.086e-6	1.281e-5
-0.129	1.075e-6	1.286e-5
-0.130	1.064e-6	1.290e-5
-0.131	1.053e-6	1.294e-5
-0.132	1.042e-6	1.298e-5
-0.133	1.032e-6	1.303e-5
-0.134	1.021e-6	1.307e-5
-0.135	1.011e-6	1.311e-5
-0.136	1.001e-6	1.315e-5
-0.137	9.902e-7	1.319e-5
-0.138	9.798e-7	1.323e-5
-0.139	9.694e-7	1.326e-5
-0.140	9.589e-7	1.330e-5
-0.141	9.485e-7	1.334e-5
-0.142	9.379e-7	1.338e-5
-0.143	9.272e-7	1.342e-5
-0.144	9.163e-7	1.345e-5
-0.145	9.052e-7	1.349e-5
-0.146	8.941e-7	1.352e-5
-0.147	8.828e-7	1.356e-5
-0.148	8.715e-7	1.359e-5
-0.149	8.600e-7	1.363e-5
-0.150	8.482e-7	1.366e-5
-0.151	8.362e-7	1.370e-5
-0.152	8.241e-7	1.373e-5
-0.153	8.118e-7	1.376e-5
-0.154	7.995e-7	1.379e-5
-0.155	7.869e-7	1.382e-5
-0.156	7.740e-7	1.386e-5
-0.157	7.608e-7	1.389e-5
-0.158	7.471e-7	1.392e-5
-0.159	7.333e-7	1.395e-5
-0.160	7.193e-7	1.397e-5
-0.161	7.052e-7	1.400e-5
-0.162	6.908e-7	1.403e-5
-0.163	6.762e-7	1.406e-5
-0.164	6.613e-7	1.408e-5
-0.165	6.461e-7	1.411e-5
-0.166	6.306e-7	1.413e-5
-0.167	6.148e-7	1.416e-5
-0.168	5.987e-7	1.418e-5
-0.169	5.823e-7	1.421e-5
-0.170	5.656e-7	1.423e-5
-0.171	5.484e-7	1.425e-5
-0.172	5.308e-7	1.427e-5
-0.173	5.129e-7	1.429e-5
-0.174	4.946e-7	1.431e-5
-0.175	4.759e-7	1.433e-5
-0.176	4.569e-7	1.435e-5
-0.177	4.373e-7	1.437e-5
-0.178	4.173e-7	1.438e-5
-0.179	3.969e-7	1.440e-5
-0.180	3.761e-7	1.441e-5
-0.181	3.550e-7	1.443e-5
-0.182	3.333e-7	1.444e-5
-0.183	3.110e-7	1.445e-5
-0.184	2.880e-7	1.447e-5
-0.185	2.642e-7	1.448e-5
-0.186	2.399e-7	1.449e-5
-0.187	2.151e-7	1.449e-5
-0.188	1.898e-7	1.450e-5
-0.189	1.640e-7	1.451e-5
-0.190	1.374e-7	1.451e-5
-0.191	1.101e-7	1.452e-5
-0.192	8.192e-8	1.452e-5
-0.193	5.299e-8	1.452e-5
-0.194	2.336e-8	1.453e-5
-0.195	-7.096e-9	1.453e-5
-0.196	-3.844e-8	1.452e-5
-0.197	-7.062e-8	1.452e-5
-0.198	-1.037e-7	1.452e-5
-0.199	-1.376e-7	1.451e-5
-0.200	-1.723e-7	1.450e-5
-0.201	-2.078e-7	1.450e-5
-0.202	-2.441e-7	1.449e-5
-0.203	-2.814e-7	1.447e-5
-0.204	-3.198e-7	1.446e-5
-0.205	-3.593e-7	1.445e-5
-0.206	-4.001e-7	1.443e-5
-0.207	-4.420e-7	1.441e-5
-0.208	-4.851e-7	1.439e-5
-0.209	-5.295e-7	1.437e-5
-0.210	-5.750e-7	1.435e-5
-0.211	-6.217e-7	1.433e-5
-0.212	-6.697e-7	1.430e-5
-0.213	-7.190e-7	1.427e-5
-0.214	-7.699e-7	1.424e-5
-0.215	-8.222e-7	1.421e-5
-0.216	-8.760e-7	1.417e-5
-0.217	-9.313e-7	1.413e-5
-0.218	-9.878e-7	1.409e-5
-0.219	-1.046e-6	1.405e-5
-0.220	-1.105e-6	1.401e-5
-0.221	-1.166e-6	1.396e-5
-0.222	-1.229e-6	1.391e-5
-0.223	-1.293e-6	1.386e-5
-0.224	-1.359e-6	1.381e-5
-0.225	-1.427e-6	1.375e-5
-0.226	-1.497e-6	1.369e-5
-0.227	-1.569e-6	1.363e-5
-0.228	-1.643e-6	1.356e-5
-0.229	-1.719e-6	1.349e-5
-0.230	-1.797e-6	1.342e-5
-0.231	-1.877e-6	1.335e-5
-0.232	-1.960e-6	1.327e-5
-0.233	-2.044e-6	1.319e-5
-0.234	-2.130e-6	1.310e-5
-0.235	-2.219e-6	1.301e-5
-0.236	-2.311e-6	1.292e-5
-0.237	-2.406e-6	1.282e-5
-0.238	-2.503e-6	1.272e-5
-0.239	-2.602e-6	1.262e-5
-0.240	-2.703e-6	1.251e-5
-0.241	-2.807e-6	1.240e-5
-0.242	-2.915e-6	1.228e-5
-0.243	-3.025e-6	1.216e-5
-0.244	-3.139e-6	1.203e-5
-0.245	-3.256e-6	1.190e-5
-0.246	-3.376e-6	1.177e-5
-0.247	-3.500e-6	1.163e-5
-0.248	-3.627e-6	1.148e-5
-0.249	-3.758e-6	1.133e-5
-0.250	-3.893e-6	1.118e-5
-0.251	-4.032e-6	1.102e-5
-0.252	-4.175e-6	1.085e-5
-0.253	-4.321e-6	1.068e-5
-0.254	-4.472e-6	1.050e-5
-0.255	-4.627e-6	1.031e-5
-0.256	-4.787e-6	1.012e-5
-0.257	-4.953e-6	9.924e-6
-0.258	-5.123e-6	9.719e-6
-0.259	-5.299e-6	9.507e-6
-0.260	-5.479e-6	9.288e-6
-0.261	-5.666e-6	9.061e-6
-0.262	-5.859e-6	8.827e-6
-0.263	-6.057e-6	8.584e-6
-0.264	-6.262e-6	8.334e-6
-0.265	-6.474e-6	8.075e-6
-0.266	-6.692e-6	7.807e-6
-0.267	-6.918e-6	7.530e-6
-0.268	-7.151e-6	7.244e-6
-0.269	-7.391e-6	6.949e-6
-0.270	-7.639e-6	6.643e-6
-0.271	-7.895e-6	6.327e-6
-0.272	-8.160e-6	6.001e-6
-0.273	-8.434e-6	5.664e-6
-0.274	-8.717e-6	5.315e-6
-0.275	-9.010e-6	4.955e-6
-0.276	-9.312e-6	4.582e-6
-0.277	-9.624e-6	4.197e-6
-0.278	-9.946e-6	3.799e-6
-0.279	-1.028e-5	3.388e-6
-0.280	-1.062e-5	2.963e-6
-0.281	-1.098e-5	2.524e-6
-0.282	-1.134e-5	2.070e-6
-0.283	-1.172e-5	1.602e-6
-0.284	-1.211e-5	1.117e-6
-0.285	-1.252e-5	6.164e-7
-0.286	-1.293e-5	9.920e-8
-0.287	-1.336e-5	-4.352e-7
-0.288	-1.380e-5	-9.872e-7
-0.289	-1.425e-5	-1.557e-6
-0.290	-1.472e-5	-2.146e-6
-0.291	-1.520e-5	-2.754e-6
-0.292	-1.569e-5	-3.382e-6
-0.293	-1.620e-5	-4.030e-6
-0.294	-1.672e-5	-4.698e-6
-0.295	-1.725e-5	-5.388e-6
-0.296	-1.780e-5	-6.100e-6
-0.297	-1.835e-5	-6.834e-6
-0.298	-1.892e-5	-7.591e-6
-0.299	-1.951e-5	-8.371e-6
-0.300	-2.010e-5	-9.176e-6
-0.301	-2.071e-5	-1.000e-5
-0.302	-2.133e-5	-1.086e-5
-0.303	-2.196e-5	-1.174e-5
-0.304	-2.260e-5	-1.264e-5
-0.305	-2.325e-5	-1.357e-5
-0.306	-2.391e-5	-1.453e-5
-0.307	-2.458e-5	-1.551e-5
-0.308	-2.526e-5	-1.652e-5
-0.309	-2.595e-5	-1.756e-5
-0.310	-2.664e-5	-1.862e-5
-0.311	-2.734e-5	-1.972e-5
-0.312	-2.804e-5	-2.084e-5
-0.313	-2.876e-5	-2.199e-5
-0.314	-2.947e-5	-2.317e-5
-0.315	-3.020e-5	-2.437e-5
-0.316	-3.092e-5	-2.561e-5
-0.317	-3.165e-5	-2.688e-5
-0.318	-3.239e-5	-2.817e-5
-0.319	-3.312e-5	-2.950e-5
-0.320	-3.386e-5	-3.085e-5
-0.321	-3.461e-5	-3.224e-5
-0.322	-3.535e-5	-3.365e-5
-0.323	-3.609e-5	-3.509e-5
-0.324	-3.683e-5	-3.657e-5
-0.325	-3.757e-5	-3.807e-5
-0.326	-3.832e-5	-3.960e-5
-0.327	-3.906e-5	-4.117e-5
-0.328	-3.980e-5	-4.276e-5
-0.329	-4.053e-5	-4.438e-5
-0.330	-4.126e-5	-4.603e-5
-0.331	-4.199e-5	-4.771e-5
-0.332	-4.272e-5	-4.942e-5
-0.333	-4.344e-5	-5.116e-5
-0.334	-4.415e-5	-5.292e-5
-0.335	-4.485e-5	-5.472e-5
-0.336	-4.555e-5	-5.654e-5
-0.337	-4.624e-5	-5.839e-5
-0.338	-4.692e-5	-6.026e-5
-0.339	-4.759e-5	-6.217e-5
-0.340	-4.826e-5	-6.410e-5
-0.341	-4.891e-5	-6.605e-5
-0.342	-4.954e-5	-6.804e-5
-0.343	-5.017e-5	-7.004e-5
-0.344	-5.078e-5	-7.207e-5
-0.345	-5.138e-5	-7.413e-5
-0.346	-5.196e-5	-7.621e-5
-0.347	-5.252e-5	-7.831e-5
-0.348	-5.307e-5	-8.043e-5
-0.349	-5.360e-5	-8.257e-5
-0.350	-5.412e-5	-8.474e-5
-0.351	-5.461e-5	-8.692e-5
-0.352	-5.508e-5	-8.913e-5
-0.353	-5.554e-5	-9.135e-5
-0.354	-5.597e-5	-9.359e-5
-0.355	-5.638e-5	-9.584e-5
-0.356	-5.677e-5	-9.811e-5
-0.357	-5.714e-5	-1.004e-4
-0.358	-5.749e-5	-1.027e-4
-0.359	-5.781e-5	-1.050e-4
-0.360	-5.811e-5	-1.073e-4
-0.361	-5.839e-5	-1.097e-4
-0.362	-5.864e-5	-1.120e-4
-0.363	-5.887e-5	-1.144e-4
-0.364	-5.908e-5	-1.167e-4
-0.365	-5.926e-5	-1.191e-4
-0.366	-5.942e-5	-1.215e-4
-0.367	-5.955e-5	-1.239e-4
-0.368	-5.967e-5	-1.263e-4
-0.369	-5.976e-5	-1.286e-4
-0.370	-5.983e-5	-1.310e-4
-0.371	-5.988e-5	-1.334e-4
-0.372	-5.990e-5	-1.358e-4
-0.373	-5.991e-5	-1.382e-4
-0.374	-5.989e-5	-1.406e-4
-0.375	-5.985e-5	-1.430e-4
-0.376	-5.980e-5	-1.454e-4
-0.377	-5.973e-5	-1.478e-4
-0.378	-5.964e-5	-1.502e-4
-0.379	-5.953e-5	-1.526e-4
-0.380	-5.940e-5	-1.549e-4
-0.381	-5.926e-5	-1.573e-4
-0.382	-5.911e-5	-1.597e-4
-0.383	-5.894e-5	-1.620e-4
-0.384	-5.876e-5	-1.644e-4
-0.385	-5.857e-5	-1.667e-4
-0.386	-5.836e-5	-1.691e-4
-0.387	-5.815e-5	-1.714e-4
-0.388	-5.792e-5	-1.737e-4
-0.389	-5.768e-5	-1.760e-4
-0.390	-5.744e-5	-1.783e-4
-0.391	-5.719e-5	-1.806e-4
-0.392	-5.693e-5	-1.829e-4
-0.393	-5.666e-5	-1.851e-4
-0.394	-5.638e-5	-1.874e-4
-0.395	-5.611e-5	-1.896e-4
-0.396	-5.582e-5	-1.919e-4
-0.397	-5.554e-5	-1.941e-4
-0.398	-5.525e-5	-1.963e-4
-0.399	-5.495e-5	-1.985e-4
-0.400	-5.465e-5	-2.007e-4
-0.401	-5.435e-5	-2.029e-4
-0.402	-5.405e-5	-2.050e-4
-0.403	-5.375e-5	-2.072e-4
-0.404	-5.344e-5	-2.093e-4
-0.405	-5.314e-5	-2.114e-4
-0.406	-5.283e-5	-2.135e-4
-0.407	-5.253e-5	-2.156e-4
-0.408	-5.222e-5	-2.177e-4
-0.409	-5.192e-5	-2.198e-4
-0.410	-5.161e-5	-2.219e-4
-0.411	-5.131e-5	-2.239e-4
-0.412	-5.101e-5	-2.260e-4
-0.413	-5.071e-5	-2.280e-4
-0.414	-5.041e-5	-2.300e-4
-0.415	-5.011e-5	-2.320e-4
-0.416	-4.981e-5	-2.340e-4
-0.417	-4.952e-5	-2.360e-4
-0.418	-4.923e-5	-2.380e-4
-0.419	-4.894e-5	-2.399e-4
-0.420	-4.866e-5	-2.419e-4
-0.421	-4.837e-5	-2.438e-4
-0.422	-4.809e-5	-2.457e-4
-0.423	-4.781e-5	-2.476e-4
-0.424	-4.754e-5	-2.495e-4
-0.425	-4.726e-5	-2.514e-4
-0.426	-4.699e-5	-2.533e-4
-0.427	-4.672e-5	-2.552e-4
-0.428	-4.646e-5	-2.570e-4
-0.429	-4.620e-5	-2.589e-4
-0.430	-4.594e-5	-2.607e-4
-0.431	-4.569e-5	-2.625e-4
-0.432	-4.543e-5	-2.644e-4
-0.433	-4.518e-5	-2.662e-4
-0.434	-4.494e-5	-2.680e-4
-0.435	-4.470e-5	-2.698e-4
-0.436	-4.446e-5	-2.715e-4
-0.437	-4.422e-5	-2.733e-4
-0.438	-4.398e-5	-2.751e-4
-0.439	-4.375e-5	-2.768e-4
-0.440	-4.352e-5	-2.786e-4
-0.441	-4.330e-5	-2.803e-4
-0.442	-4.307e-5	-2.820e-4
-0.443	-4.285e-5	-2.837e-4
-0.444	-4.264e-5	-2.854e-4
-0.445	-4.242e-5	-2.871e-4
-0.446	-4.221e-5	-2.888e-4
-0.447	-4.200e-5	-2.905e-4
-0.448	-4.180e-5	-2.922e-4
-0.449	-4.159e-5	-2.938e-4
-0.450	-4.139e-5	-2.955e-4
-0.451	-4.119e-5	-2.971e-4
-0.452	-4.100e-5	-2.988e-4
-0.453	-4.081e-5	-3.004e-4
-0.454	-4.061e-5	-3.020e-4
-0.455	-4.043e-5	-3.036e-4
-0.456	-4.024e-5	-3.053e-4
-0.457	-4.006e-5	-3.069e-4
-0.458	-3.988e-5	-3.085e-4
-0.459	-3.970e-5	-3.100e-4
-0.460	-3.953e-5	-3.116e-4
-0.461	-3.935e-5	-3.132e-4
-0.462	-3.918e-5	-3.148e-4
-0.463	-3.901e-5	-3.163e-4
-0.464	-3.885e-5	-3.179e-4
-0.465	-3.868e-5	-3.194e-4
-0.466	-3.852e-5	-3.210e-4
-0.467	-3.836e-5	-3.225e-4
-0.468	-3.820e-5	-3.240e-4
-0.469	-3.805e-5	-3.256e-4
-0.470	-3.789e-5	-3.271e-4
-0.471	-3.774e-5	-3.286e-4
-0.472	-3.759e-5	-3.301e-4
-0.473	-3.745e-5	-3.316e-4
-0.474	-3.730e-5	-3.331e-4
-0.475	-3.716e-5	-3.346e-4
-0.476	-3.701e-5	-3.360e-4
-0.477	-3.687e-5	-3.375e-4
-0.478	-3.674e-5	-3.390e-4
-0.479	-3.660e-5	-3.404e-4
-0.480	-3.646e-5	-3.419e-4
-0.481	-3.633e-5	-3.434e-4
-0.482	-3.620e-5	-3.448e-4
-0.483	-3.607e-5	-3.462e-4
-0.484	-3.594e-5	-3.477e-4
-0.485	-3.582e-5	-3.491e-4
-0.486	-3.569e-5	-3.505e-4
-0.487	-3.557e-5	-3.520e-4
-0.488	-3.545e-5	-3.534e-4
-0.489	-3.533e-5	-3.548e-4
-0.490	-3.521e-5	-3.562e-4
-0.491	-3.509e-5	-3.576e-4
-0.492	-3.498e-5	-3.590e-4
-0.493	-3.486e-5	-3.604e-4
-0.494	-3.475e-5	-3.618e-4
-0.495	-3.464e-5	-3.632e-4
-0.496	-3.453e-5	-3.646e-4
-0.497	-3.442e-5	-3.659e-4
-0.498	-3.431e-5	-3.673e-4
-0.499	-3.421e-5	-3.687e-4
-0.500	-3.410e-5	-3.700e-4
-0.501	-3.400e-5	-3.714e-4
-0.502	-3.390e-5	-3.728e-4
-0.503	-3.380e-5	-3.741e-4
-0.504	-3.369e-5	-3.755e-4
-0.505	-3.360e-5	-3.768e-4
-0.506	-3.350e-5	-3.781e-4
-0.507	-3.340e-5	-3.795e-4
-0.508	-3.331e-5	-3.808e-4
-0.509	-3.321e-5	-3.821e-4
-0.510	-3.312e-5	-3.835e-4
-0.511	-3.303e-5	-3.848e-4
-0.512	-3.294e-5	-3.861e-4
-0.513	-3.285e-5	-3.874e-4
-0.514	-3.276e-5	-3.887e-4
-0.515	-3.267e-5	-3.900e-4
-0.516	-3.258e-5	-3.913e-4
-0.517	-3.250e-5	-3.926e-4
-0.518	-3.241e-5	-3.939e-4
-0.519	-3.233e-5	-3.952e-4
-0.520	-3.225e-5	-3.965e-4
-0.521	-3.216e-5	-3.978e-4
-0.522	-3.208e-5	-3.991e-4
-0.523	-3.200e-5	-4.004e-4
-0.524	-3.192e-5	-4.016e-4
-0.525	-3.184e-5	-4.029e-4
-0.526	-3.177e-5	-4.042e-4
-0.527	-3.169e-5	-4.055e-4
-0.528	-3.161e-5	-4.067e-4
-0.529	-3.154e-5	-4.080e-4
-0.530	-3.146e-5	-4.092e-4
-0.531	-3.139e-5	-4.105e-4
-0.532	-3.132e-5	-4.117e-4
-0.533	-3.124e-5	-4.130e-4
-0.534	-3.117e-5	-4.142e-4
-0.535	-3.110e-5	-4.155e-4
-0.536	-3.103e-5	-4.167e-4
-0.537	-3.096e-5	-4.180e-4
-0.538	-3.090e-5	-4.192e-4
-0.539	-3.083e-5	-4.204e-4
-0.540	-3.076e-5	-4.217e-4
-0.541	-3.069e-5	-4.229e-4
-0.542	-3.063e-5	-4.241e-4
-0.543	-3.056e-5	-4.253e-4
-0.544	-3.050e-5	-4.266e-4
-0.545	-3.043e-5	-4.278e-4
-0.546	-3.037e-5	-4.290e-4
-0.547	-3.031e-5	-4.302e-4
-0.548	-3.024e-5	-4.314e-4
-0.549	-3.018e-5	-4.326e-4
-0.550	-3.012e-5	-4.338e-4
-0.551	-3.006e-5	-4.350e-4
-0.552	-3.000e-5	-4.362e-4
-0.553	-2.994e-5	-4.374e-4
-0.554	-2.989e-5	-4.386e-4
-0.555	-2.983e-5	-4.398e-4
-0.556	-2.977e-5	-4.410e-4
-0.557	-2.971e-5	-4.422e-4
-0.558	-2.966e-5	-4.434e-4
-0.559	-2.960e-5	-4.446e-4
-0.560	-2.955e-5	-4.458e-4
-0.561	-2.949e-5	-4.469e-4
-0.562	-2.944e-5	-4.481e-4
-0.563	-2.938e-5	-4.493e-4
-0.564	-2.933e-5	-4.505e-4
-0.565	-2.928e-5	-4.516e-4
-0.566	-2.923e-5	-4.528e-4
-0.567	-2.917e-5	-4.540e-4
-0.568	-2.912e-5	-4.551e-4
-0.569	-2.907e-5	-4.563e-4
-0.570	-2.902e-5	-4.575e-4
-0.571	-2.897e-5	-4.586e-4
-0.572	-2.892e-5	-4.598e-4
-0.573	-2.887e-5	-4.609e-4
-0.574	-2.882e-5	-4.621e-4
-0.575	-2.878e-5	-4.632e-4
-0.576	-2.873e-5	-4.644e-4
-0.577	-2.868e-5	-4.655e-4
-0.578	-2.863e-5	-4.667e-4
-0.579	-2.859e-5	-4.678e-4
-0.580	-2.854e-5	-4.690e-4
-0.581	-2.849e-5	-4.701e-4
-0.582	-2.845e-5	-4.712e-4
-0.583	-2.840e-5	-4.724e-4
-0.584	-2.836e-5	-4.735e-4
-0.585	-2.831e-5	-4.746e-4
-0.586	-2.827e-5	-4.758e-4
-0.587	-2.823e-5	-4.769e-4
-0.588	-2.818e-5	-4.780e-4
-0.589	-2.814e-5	-4.791e-4
-0.590	-2.810e-5	-4.803e-4
-0.591	-2.806e-5	-4.814e-4
-0.592	-2.801e-5	-4.825e-4
-0.593	-2.797e-5	-4.836e-4
-0.594	-2.793e-5	-4.848e-4
-0.595	-2.789e-5	-4.859e-4
-0.596	-2.785e-5	-4.870e-4
-0.597	-2.781e-5	-4.881e-4
-0.598	-2.777e-5	-4.892e-4
-0.599	-2.773e-5	-4.903e-4
-0.600	-2.764e-5	-1.106e-6
-0.599	-2.757e-5	-2.208e-6
-0.598	-2.750e-5	-3.308e-6
-0.597	-2.744e-5	-4.406e-6
-0.596	-2.739e-5	-5.501e-6
-0.595	-2.734e-5	-6.595e-6
-0.594	-2.729e-5	-7.686e-6
-0.593	-2.724e-5	-8.776e-6
-0.592	-2.720e-5	-9.864e-6
-0.591	-2.715e-5	-1.095e-5
-0.590	-2.710e-5	-1.203e-5
-0.589	-2.706e-5	-1.312e-5
-0.588	-2.701e-5	-1.420e-5
-0.587	-2.697e-5	-1.528e-5
-0.586	-2.693e-5	-1.635e-5
-0.585	-2.689e-5	-1.743e-5
-0.584	-2.684e-5	-1.850e-5
-0.583	-2.680e-5	-1.957e-5
-0.582	-2.676e-5	-2.064e-5
-0.581	-2.672e-5	-2.171e-5
-0.580	-2.668e-5	-2.278e-5
-0.579	-2.664e-5	-2.385e-5
-0.578	-2.660e-5	-2.491e-5
-0.577	-2.656e-5	-2.597e-5
-0.576	-2.652e-5	-2.703e-5
-0.575	-2.649e-5	-2.809e-5
-0.574	-2.645e-5	-2.915e-5
-0.573	-2.641e-5	-3.021e-5
-0.572	-2.637e-5	-3.126e-5
-0.571	-2.634e-5	-3.232e-5
-0.570	-2.630e-5	-3.337e-5
-0.569	-2.626e-5	-3.442e-5
-0.568	-2.623e-5	-3.547e-5
-0.567	-2.619e-5	-3.652e-5
-0.566	-2.616e-5	-3.756e-5
-0.565	-2.612e-5	-3.861e-5
-0.564	-2.609e-5	-3.965e-5
-0.563	-2.605e-5	-4.069e-5
-0.562	-2.602e-5	-4.173e-5
-0.561	-2.598e-5	-4.277e-5
-0.560	-2.595e-5	-4.381e-5
-0.559	-2.591e-5	-4.485e-5
-0.558	-2.588e-5	-4.588e-5
-0.557	-2.585e-5	-4.692e-5
-0.556	-2.581e-5	-4.795e-5
-0.555	-2.578e-5	-4.898e-5
-0.554	-2.575e-5	-5.001e-5
-0.553	-2.571e-5	-5.104e-5
-0.552	-2.568e-5	-5.206e-5
-0.551	-2.565e-5	-5.309e-5
-0.550	-2.562e-5	-5.412e-5
-0.549	-2.558e-5	-5.514e-5
-0.548	-2.555e-5	-5.616e-5
-0.547	-2.552e-5	-5.718e-5
-0.546	-2.549e-5	-5.820e-5
-0.545	-2.546e-5	-5.922e-5
-0.544	-2.543e-5	-6.024e-5
-0.543	-2.540e-5	-6.125e-5
-0.542	-2.537e-5	-6.227e-5
-0.541	-2.533e-5	-6.328e-5
-0.540	-2.530e-5	-6.429e-5
-0.539	-2.527e-5	-6.530e-5
-0.538	-2.524e-5	-6.631e-5
-0.537	-2.521e-5	-6.732e-5
-0.536	-2.518e-5	-6.833e-5
-0.535	-2.515e-5	-6.934e-5
-0.534	-2.512e-5	-7.034e-5
-0.533	-2.509e-5	-7.134e-5
-0.532	-2.506e-5	-7.235e-5
-0.531	-2.503e-5	-7.335e-5
-0.530	-2.500e-5	-7.435e-5
-0.529	-2.497e-5	-7.535e-5
-0.528	-2.494e-5	-7.634e-5
-0.527	-2.491e-5	-7.734e-5
-0.526	-2.488e-5	-7.834e-5
-0.525	-2.485e-5	-7.933e-5
-0.524	-2.483e-5	-8.032e-5
-0.523	-2.480e-5	-8.132e-5
-0.522	-2.477e-5	-8.231e-5
-0.521	-2.474e-5	-8.330e-5
-0.520	-2.471e-5	-8.428e-5
-0.519	-2.468e-5	-8.527e-5
-0.518	-2.465e-5	-8.626e-5
-0.517	-2.462e-5	-8.724e-5
-0.516	-2.459e-5	-8.823e-5
-0.515	-2.456e-5	-8.921e-5
-0.514	-2.453e-5	-9.019e-5
-0.513	-2.450e-5	-9.117e-5
-0.512	-2.447e-5	-9.215e-5
-0.511	-2.444e-5	-9.313e-5
-0.510	-2.441e-5	-9.410e-5
-0.509	-2.438e-5	-9.508e-5
-0.508	-2.435e-5	-9.605e-5
-0.507	-2.432e-5	-9.703e-5
-0.506	-2.429e-5	-9.800e-5
-0.505	-2.426e-5	-9.897e-5
-0.504	-2.423e-5	-9.994e-5
-0.503	-2.420e-5	-1.009e-4
-0.502	-2.417e-5	-1.019e-4
-0.501	-2.414e-5	-1.028e-4
-0.500	-2.411e-5	-1.038e-4
-0.499	-2.408e-5	-1.048e-4
-0.498	-2.405e-5	-1.057e-4
-0.497	-2.401e-5	-1.067e-4
-0.496	-2.398e-5	-1.076e-4
-0.495	-2.395e-5	-1.086e-4
-0.494	-2.392e-5	-1.096e-4
-0.493	-2.389e-5	-1.105e-4
-0.492	-2.385e-5	-1.115e-4
-0.491	-2.382e-5	-1.124e-4
-0.490	-2.378e-5	-1.134e-4
-0.489	-2.375e-5	-1.143e-4
-0.488	-2.372e-5	-1.153e-4
-0.487	-2.368e-5	-1.162e-4
-0.486	-2.364e-5	-1.172e-4
-0.485	-2.361e-5	-1.181e-4
-0.484	-2.357e-5	-1.191e-4
-0.483	-2.353e-5	-1.200e-4
-0.482	-2.350e-5	-1.209e-4
-0.481	-2.346e-5	-1.219e-4
-0.480	-2.342e-5	-1.228e-4
-0.479	-2.338e-5	-1.237e-4
-0.478	-2.334e-5	-1.247e-4
-0.477	-2.330e-5	-1.256e-4
-0.476	-2.326e-5	-1.265e-4
-0.475	-2.322e-5	-1.275e-4
-0.474	-2.317e-5	-1.284e-4
-0.473	-2.313e-5	-1.293e-4
-0.472	-2.309e-5	-1.302e-4
-0.471	-2.304e-5	-1.312e-4
-0.470	-2.299e-5	-1.321e-4
-0.469	-2.295e-5	-1.330e-4
-0.468	-2.290e-5	-1.339e-4
-0.467	-2.285e-5	-1.348e-4
-0.466	-2.280e-5	-1.357e-4
-0.465	-2.275e-5	-1.367e-4
-0.464	-2.269e-5	-1.376e-4
-0.463	-2.264e-5	-1.385e-4
-0.462	-2.258e-5	-1.394e-4
-0.461	-2.253e-5	-1.403e-4
-0.460	-2.247e-5	-1.412e-4
-0.459	-2.241e-5	-1.421e-4
-0.458	-2.235e-5	-1.430e-4
-0.457	-2.229e-5	-1.439e-4
-0.456	-2.222e-5	-1.447e-4
-0.455	-2.216e-5	-1.456e-4
-0.454	-2.209e-5	-1.465e-4
-0.453	-2.202e-5	-1.474e-4
-0.452	-2.195e-5	-1.483e-4
-0.451	-2.188e-5	-1.491e-4
-0.450	-2.180e-5	-1.500e-4
-0.449	-2.173e-5	-1.509e-4
-0.448	-2.165e-5	-1.518e-4
-0.447	-2.157e-5	-1.526e-4
-0.446	-2.148e-5	-1.535e-4
-0.445	-2.140e-5	-1.543e-4
-0.444	-2.131e-5	-1.552e-4
-0.443	-2.122e-5	-1.560e-4
-0.442	-2.112e-5	-1.569e-4
-0.441	-2.103e-5	-1.577e-4
-0.440	-2.093e-5	-1.586e-4
-0.439	-2.082e-5	-1.594e-4
-0.438	-2.072e-5	-1.602e-4
-0.437	-2.061e-5	-1.610e-4
-0.436	-2.050e-5	-1.619e-4
-0.435	-2.038e-5	-1.627e-4
-0.434	-2.026e-5	-1.635e-4
-0.433	-2.014e-5	-1.643e-4
-0.432	-2.002e-5	-1.651e-4
-0.431	-1.989e-5	-1.659e-4
-0.430	-1.975e-5	-1.667e-4
-0.429	-1.961e-5	-1.675e-4
-0.428	-1.947e-5	-1.682e-4
-0.427	-1.932e-5	-1.690e-4
-0.426	-1.917e-5	-1.698e-4
-0.425	-1.901e-5	-1.705e-4
-0.424	-1.885e-5	-1.713e-4
-0.423	-1.868e-5	-1.720e-4
-0.422	-1.851e-5	-1.728e-4
-0.421	-1.833e-5	-1.735e-4
-0.420	-1.815e-5	-1.742e-4
-0.419	-1.796e-5	-1.750e-4
-0.418	-1.776e-5	-1.757e-4
-0.417	-1.756e-5	-1.764e-4
-0.416	-1.735e-5	-1.771e-4
-0.415	-1.714e-5	-1.778e-4
-0.414	-1.692e-5	-1.784e-4
-0.413	-1.669e-5	-1.791e-4
-0.412	-1.645e-5	-1.798e-4
-0.411	-1.621e-5	-1.804e-4
-0.410	-1.595e-5	-1.810e-4
-0.409	-1.569e-5	-1.817e-4
-0.408	-1.543e-5	-1.823e-4
-0.407	-1.515e-5	-1.829e-4
-0.406	-1.486e-5	-1.835e-4
-0.405	-1.457e-5	-1.841e-4
-0.404	-1.427e-5	-1.846e-4
-0.403	-1.395e-5	-1.852e-4
-0.402	-1.363e-5	-1.857e-4
-0.401	-1.330e-5	-1.863e-4
-0.400	-1.296e-5	-1.868e-4
-0.399	-1.261e-5	-1.873e-4
-0.398	-1.224e-5	-1.878e-4
-0.397	-1.187e-5	-1.883e-4
-0.396	-1.149e-5	-1.887e-4
-0.395	-1.109e-5	-1.892e-4
-0.394	-1.069e-5	-1.896e-4
-0.393	-1.027e-5	-1.900e-4
-0.392	-9.843e-6	-1.904e-4
-0.391	-9.402e-6	-1.908e-4
-0.390	-8.949e-6	-1.911e-4
-0.389	-8.486e-6	-1.915e-4
-0.388	-8.011e-6	-1.918e-4
-0.387	-7.526e-6	-1.921e-4
-0.386	-7.028e-6	-1.924e-4
-0.385	-6.517e-6	-1.926e-4
-0.384	-5.994e-6	-1.929e-4
-0.383	-5.459e-6	-1.931e-4
-0.382	-4.915e-6	-1.933e-4
-0.381	-4.361e-6	-1.935e-4
-0.380	-3.794e-6	-1.936e-4
-0.379	-3.216e-6	-1.937e-4
-0.378	-2.623e-6	-1.939e-4
-0.377	-2.021e-6	-1.939e-4
-0.376	-1.411e-6	-1.940e-4
-0.375	-7.917e-7	-1.940e-4
-0.374	-1.645e-7	-1.940e-4
-0.373	4.724e-7	-1.940e-4
-0.372	1.119e-6	-1.940e-4
-0.371	1.774e-6	-1.939e-4
-0.370	2.437e-6	-1.938e-4
-0.369	3.105e-6	-1.937e-4
-0.368	3.778e-6	-1.935e-4
-0.367	4.459e-6	-1.933e-4
-0.366	5.145e-6	-1.931e-4
-0.365	5.836e-6	-1.929e-4
-0.364	6.530e-6	-1.926e-4
-0.363	7.223e-6	-1.924e-4
-0.362	7.916e-6	-1.920e-4
-0.361	8.610e-6	-1.917e-4
-0.360	9.305e-6	-1.913e-4
-0.359	1.000e-5	-1.909e-4
-0.358	1.070e-5	-1.905e-4
-0.357	1.139e-5	-1.900e-4
-0.356	1.208e-5	-1.896e-4
-0.355	1.276e-5	-1.890e-4
-0.354	1.344e-5	-1.885e-4
-0.353	1.411e-5	-1.879e-4
-0.352	1.477e-5	-1.873e-4
-0.351	1.543e-5	-1.867e-4
-0.350	1.607e-5	-1.861e-4
-0.349	1.670e-5	-1.854e-4
-0.348	1.732e-5	-1.847e-4
-0.347	1.793e-5	-1.840e-4
-0.346	1.853e-5	-1.833e-4
-0.345	1.912e-5	-1.825e-4
-0.344	1.969e-5	-1.817e-4
-0.343	2.025e-5	-1.809e-4
-0.342	2.080e-5	-1.801e-4
-0.341	2.133e-5	-1.792e-4
-0.340	2.184e-5	-1.783e-4
-0.339	2.234e-5	-1.775e-4
-0.338	2.283e-5	-1.765e-4
-0.337	2.329e-5	-1.756e-4
-0.336	2.374e-5	-1.747e-4
-0.335	2.417e-5	-1.737e-4
-0.334	2.458e-5	-1.727e-4
-0.333	2.497e-5	-1.717e-4
-0.332	2.535e-5	-1.707e-4
-0.331	2.571e-5	-1.697e-4
-0.330	2.606e-5	-1.686e-4
-0.329	2.638e-5	-1.676e-4
-0.328	2.669e-5	-1.665e-4
-0.327	2.698e-5	-1.654e-4
-0.326	2.725e-5	-1.643e-4
-0.325	2.750e-5	-1.632e-4
-0.324	2.774e-5	-1.621e-4
-0.323	2.796e-5	-1.610e-4
-0.322	2.816e-5	-1.599e-4
-0.321	2.835e-5	-1.587e-4
-0.320	2.852e-5	-1.576e-4
-0.319	2.868e-5	-1.565e-4
-0.318	2.882e-5	-1.553e-4
-0.317	2.894e-5	-1.541e-4
-0.316	2.906e-5	-1.530e-4
-0.315	2.915e-5	-1.518e-4
-0.314	2.924e-5	-1.507e-4
-0.313	2.931e-5	-1.495e-4
-0.312	2.937e-5	-1.483e-4
-0.311	2.942e-5	-1.471e-4
-0.310	2.946e-5	-1.459e-4
-0.309	2.948e-5	-1.448e-4
-0.308	2.950e-5	-1.436e-4
-0.307	2.950e-5	-1.424e-4
-0.306	2.950e-5	-1.412e-4
-0.305	2.948e-5	-1.400e-4
-0.304	2.945e-5	-1.389e-4
-0.303	2.942e-5	-1.377e-4
-0.302	2.937e-5	-1.365e-4
-0.301	2.932e-5	-1.353e-4
-0.300	2.926e-5	-1.342e-4
-0.299	2.919e-5	-1.330e-4
-0.298	2.912e-5	-1.318e-4
-0.297	2.904e-5	-1.307e-4
-0.296	2.895e-5	-1.295e-4
-0.295	2.887e-5	-1.284e-4
-0.294	2.877e-5	-1.272e-4
-0.293	2.867e-5	-1.261e-4
-0.292	2.857e-5	-1.249e-4
-0.291	2.846e-5	-1.238e-4
-0.290	2.835e-5	-1.227e-4
-0.289	2.824e-5	-1.215e-4
-0.288	2.812e-5	-1.204e-4
-0.287	2.800e-5	-1.193e-4
-0.286	2.788e-5	-1.182e-4
-0.285	2.775e-5	-1.171e-4
-0.284	2.763e-5	-1.160e-4
-0.283	2.750e-5	-1.149e-4
-0.282	2.737e-5	-1.138e-4
-0.281	2.724e-5	-1.127e-4
-0.280	2.711e-5	-1.116e-4
-0.279	2.697e-5	-1.105e-4
-0.278	2.684e-5	-1.094e-4
-0.277	2.670e-5	-1.084e-4
-0.276	2.657e-5	-1.073e-4
-0.275	2.643e-5	-1.062e-4
-0.274	2.629e-5	-1.052e-4
-0.273	2.616e-5	-1.041e-4
-0.272	2.602e-5	-1.031e-4
-0.271	2.588e-5	-1.021e-4
-0.270	2.574e-5	-1.010e-4
-0.269	2.561e-5	-1.000e-4
-0.268	2.547e-5	-9.900e-5
-0.267	2.533e-5	-9.798e-5
-0.266	2.519e-5	-9.698e-5
-0.265	2.506e-5	-9.597e-5
-0.264	2.492e-5	-9.498e-5
-0.263	2.478e-5	-9.398e-5
-0.262	2.465e-5	-9.300e-5
-0.261	2.451e-5	-9.202e-5
-0.260	2.438e-5	-9.104e-5
-0.259	2.424e-5	-9.007e-5
-0.258	2.411e-5	-8.911e-5
-0.257	2.397e-5	-8.815e-5
-0.256	2.384e-5	-8.720e-5
-0.255	2.370e-5	-8.625e-5
-0.254	2.357e-5	-8.531e-5
-0.253	2.344e-5	-8.437e-5
-0.252	2.330e-5	-8.344e-5
-0.251	2.317e-5	-8.251e-5
-0.250	2.304e-5	-8.159e-5
-0.249	2.290e-5	-8.067e-5
-0.248	2.277e-5	-7.976e-5
-0.247	2.264e-5	-7.886e-5
-0.246	2.250e-5	-7.796e-5
-0.245	2.237e-5	-7.706e-5
-0.244	2.224e-5	-7.617e-5
-0.243	2.210e-5	-7.529e-5
-0.242	2.197e-5	-7.441e-5
-0.241	2.183e-5	-7.353e-5
-0.240	2.170e-5	-7.267e-5
-0.239	2.157e-5	-7.180e-5
-0.238	2.143e-5	-7.095e-5
-0.237	2.130e-5	-7.010e-5
-0.236	2.116e-5	-6.925e-5
-0.235	2.103e-5	-6.841e-5
-0.234	2.089e-5	-6.757e-5
-0.233	2.076e-5	-6.674e-5
-0.232	2.062e-5	-6.592e-5
-0.231	2.048e-5	-6.510e-5
-0.230	2.035e-5	-6.428e-5
-0.229	2.021e-5	-6.348e-5
-0.228	2.008e-5	-6.267e-5
-0.227	1.994e-5	-6.187e-5
-0.226	1.980e-5	-6.108e-5
-0.225	1.967e-5	-6.030e-5
-0.224	1.953e-5	-5.951e-5
-0.223	1.939e-5	-5.874e-5
-0.222	1.925e-5	-5.797e-5
-0.221	1.912e-5	-5.720e-5
-0.220	1.898e-5	-5.645e-5
-0.219	1.884e-5	-5.569e-5
-0.218	1.871e-5	-5.494e-5
-0.217	1.857e-5	-5.420e-5
-0.216	1.843e-5	-5.346e-5
-0.215	1.830e-5	-5.273e-5
-0.214	1.816e-5	-5.200e-5
-0.213	1.802e-5	-5.128e-5
-0.212	1.789e-5	-5.057e-5
-0.211	1.775e-5	-4.986e-5
-0.210	1.762e-5	-4.915e-5
-0.209	1.749e-5	-4.845e-5
-0.208	1.735e-5	-4.776e-5
-0.207	1.722e-5	-4.707e-5
-0.206	1.709e-5	-4.639e-5
-0.205	1.695e-5	-4.571e-5
-0.204	1.682e-5	-4.504e-5
-0.203	1.669e-5	-4.437e-5
-0.202	1.656e-5	-4.371e-5
-0.201	1.643e-5	-4.305e-5
-0.200	1.630e-5	-4.240e-5
-0.199	1.618e-5	-4.175e-5
-0.198	1.605e-5	-4.111e-5
-0.197	1.592e-5	-4.047e-5
-0.196	1.580e-5	-3.984e-5
-0.195	1.567e-5	-3.921e-5
-0.194	1.555e-5	-3.859e-5
-0.193	1.542e-5	-3.797e-5
-0.192	1.530e-5	-3.736e-5
-0.191	1.518e-5	-3.675e-5
-0.190	1.506e-5	-3.615e-5
-0.189	1.494e-5	-3.555e-5
-0.188	1.482e-5	-3.496e-5
-0.187	1.470e-5	-3.437e-5
-0.186	1.459e-5	-3.379e-5
-0.185	1.447e-5	-3.321e-5
-0.184	1.436e-5	-3.264e-5
-0.183	1.425e-5	-3.207e-5
-0.182	1.413e-5	-3.150e-5
-0.181	1.402e-5	-3.094e-5
-0.180	1.391e-5	-3.038e-5
-0.179	1.380e-5	-2.983e-5
-0.178	1.369e-5	-2.928e-5
-0.177	1.358e-5	-2.874e-5
-0.176	1.348e-5	-2.820e-5
-0.175	1.337e-5	-2.767e-5
-0.174	1.327e-5	-2.714e-5
-0.173	1.316e-5	-2.661e-5
-0.172	1.306e-5	-2.609e-5
-0.171	1.296e-5	-2.557e-5
-0.170	1.286e-5	-2.505e-5
-0.169	1.276e-5	-2.454e-5
-0.168	1.266e-5	-2.404e-5
-0.167	1.256e-5	-2.353e-5
-0.166	1.247e-5	-2.304e-5
-0.165	1.237e-5	-2.254e-5
-0.164	1.227e-5	-2.205e-5
-0.163	1.218e-5	-2.156e-5
-0.162	1.209e-5	-2.108e-5
-0.161	1.200e-5	-2.060e-5
-0.160	1.191e-5	-2.012e-5
-0.159	1.182e-5	-1.965e-5
-0.158	1.173e-5	-1.918e-5
-0.157	1.164e-5	-1.872e-5
-0.156	1.155e-5	-1.825e-5
-0.155	1.147e-5	-1.780e-5
-0.154	1.138e-5	-1.734e-5
-0.153	1.130e-5	-1.689e-5
-0.152	1.122e-5	-1.644e-5
-0.151	1.113e-5	-1.599e-5
-0.150	1.105e-5	-1.555e-5
-0.149	1.097e-5	-1.511e-5
-0.148	1.089e-5	-1.468e-5
-0.147	1.081e-5	-1.425e-5
-0.146	1.074e-5	-1.382e-5
-0.145	1.066e-5	-1.339e-5
-0.144	1.059e-5	-1.297e-5
-0.143	1.051e-5	-1.255e-5
-0.142	1.044e-5	-1.213e-5
-0.141	1.037e-5	-1.171e-5
-0.140	1.030e-5	-1.130e-5
-0.139	1.022e-5	-1.089e-5
-0.138	1.016e-5	-1.049e-5
-0.137	1.009e-5	-1.008e-5
-0.136	1.002e-5	-9.682e-6
-0.135	9.953e-6	-9.284e-6
-0.134	9.888e-6	-8.888e-6
-0.133	9.824e-6	-8.495e-6
-0.132	9.761e-6	-8.105e-6
-0.131	9.699e-6	-7.717e-6
-0.130	9.637e-6	-7.331e-6
-0.129	9.577e-6	-6.948e-6
-0.128	9.518e-6	-6.567e-6
-0.127	9.459e-6	-6.189e-6
-0.126	9.402e-6	-5.813e-6
-0.125	9.345e-6	-5.439e-6
-0.124	9.290e-6	-5.068e-6
-0.123	9.235e-6	-4.698e-6
-0.122	9.182e-6	-4.331e-6
-0.121	9.130e-6	-3.966e-6
-0.120	9.078e-6	-3.603e-6
-0.119	9.027e-6	-3.241e-6
-0.118	8.977e-6	-2.882e-6
-0.117	8.928e-6	-2.525e-6
-0.116	8.880e-6	-2.170e-6
-0.115	8.832e-6	-1.817e-6
-0.114	8.786e-6	-1.465e-6
-0.113	8.739e-6	-1.116e-6
-0.112	8.694e-6	-7.680e-7
-0.111	8.648e-6	-4.221e-7
-0.110	8.604e-6	-7.793e-8
-0.109	8.560e-6	2.645e-7
-0.108	8.516e-6	6.051e-7
-0.107	8.472e-6	9.440e-7
-0.106	8.429e-6	1.281e-6
-0.105	8.386e-6	1.617e-6
-0.104	8.344e-6	1.950e-6
-0.103	8.302e-6	2.282e-6
-0.102	8.260e-6	2.613e-6
-0.101	8.217e-6	2.942e-6
-0.100	8.175e-6	3.269e-6
-0.099	8.132e-6	3.594e-6
-0.098	8.089e-6	3.917e-6
-0.097	8.046e-6	4.239e-6
-0.096	8.003e-6	4.559e-6
-0.095	7.960e-6	4.878e-6
-0.094	7.916e-6	5.194e-6
-0.093	7.872e-6	5.509e-6
-0.092	7.827e-6	5.822e-6
-0.091	7.783e-6	6.134e-6
-0.090	7.738e-6	6.443e-6
-0.089	7.694e-6	6.751e-6
-0.088	7.649e-6	7.057e-6
-0.087	7.604e-6	7.361e-6
-0.086	7.559e-6	7.663e-6
-0.085	7.513e-6	7.964e-6
-0.084	7.468e-6	8.263e-6
-0.083	7.423e-6	8.560e-6
-0.082	7.377e-6	8.855e-6
-0.081	7.332e-6	9.148e-6
-0.080	7.287e-6	9.439e-6
-0.079	7.242e-6	9.729e-6
-0.078	7.197e-6	1.002e-5
-0.077	7.152e-6	1.030e-5
-0.076	7.107e-6	1.059e-5
-0.075	7.062e-6	1.087e-5
-0.074	7.017e-6	1.115e-5
-0.073	6.972e-6	1.143e-5
-0.072	6.928e-6	1.171e-5
-0.071	6.885e-6	1.198e-5
-0.070	6.841e-6	1.226e-5
-0.069	6.798e-6	1.253e-5
-0.068	6.755e-6	1.280e-5
-0.067	6.713e-6	1.307e-5
-0.066	6.671e-6	1.333e-5
-0.065	6.629e-6	1.360e-5
-0.064	6.588e-6	1.386e-5
-0.063	6.546e-6	1.412e-5
-0.062	6.505e-6	1.438e-5
-0.061	6.465e-6	1.464e-5
-0.060	6.424e-6	1.490e-5
-0.059	6.384e-6	1.515e-5
-0.058	6.345e-6	1.541e-5
-0.057	6.305e-6	1.566e-5
-0.056	6.266e-6	1.591e-5
-0.055	6.227e-6	1.616e-5
-0.054	6.188e-6	1.641e-5
-0.053	6.150e-6	1.665e-5
-0.052	6.113e-6	1.690e-5
-0.051	6.076e-6	1.714e-5
-0.050	6.039e-6	1.738e-5
-0.049	6.002e-6	1.762e-5
-0.048	5.966e-6	1.786e-5
-0.047	5.930e-6	1.810e-5
-0.046	5.894e-6	1.833e-5
-0.045	5.859e-6	1.857e-5
-0.044	5.824e-6	1.880e-5
-0.043	5.789e-6	1.903e-5
-0.042	5.754e-6	1.926e-5
-0.041	5.720e-6	1.949e-5
-0.040	5.686e-6	1.972e-5
-0.039	5.653e-6	1.995e-5
-0.038	5.620e-6	2.017e-5
-0.037	5.587e-6	2.039e-5
-0.036	5.554e-6	2.062e-5
-0.035	5.521e-6	2.084e-5
-0.034	5.489e-6	2.106e-5
-0.033	5.457e-6	2.128e-5
-0.032	5.425e-6	2.149e-5
-0.031	5.394e-6	2.171e-5
-0.030	5.363e-6	2.192e-5
-0.029	5.332e-6	2.214e-5
-0.028	5.301e-6	2.235e-5
-0.027	5.271e-6	2.256e-5
-0.026	5.241e-6	2.277e-5
-0.025	5.211e-6	2.298e-5
-0.024	5.182e-6	2.318e-5
-0.023	5.153e-6	2.339e-5
-0.022	5.124e-6	2.360e-5
-0.021	5.095e-6	2.380e-5
-0.020	5.067e-6	2.400e-5
-0.019	5.039e-6	2.420e-5
-0.018	5.011e-6	2.440e-5
-0.017	4.983e-6	2.460e-5
-0.016	4.955e-6	2.480e-5
-0.015	4.928e-6	2.500e-5
-0.014	4.900e-6	2.519e-5
-0.013	4.873e-6	2.539e-5
-0.012	4.847e-6	2.558e-5
-0.011	4.820e-6	2.578e-5
-0.010	4.793e-6	2.597e-5
-0.009	4.767e-6	2.616e-5
-0.008	4.741e-6	2.635e-5
-0.007	4.715e-6	2.654e-5
-0.006	4.689e-6	2.672e-5
-0.005	4.664e-6	2.691e-5
-0.004	4.638e-6	2.710e-5
-0.003	4.613e-6	2.728e-5
-0.002	4.588e-6	2.746e-5
-0.001	4.564e-6	2.765e-5
