Nov. 4, 2019   15:06:08
Cyclic Voltammetry
File: e:\data_thesis\4-11-2019\cv_2,3-dsqui_1m_kcl_10mm_hcl_scan_rates_003.txt
Data Source:  Experiment
Instrument Model:  CHI760E
Data Proc:  Smoothing
Header: 
Note: 

Init E (V) = 0
High E (V) = 0
Low E (V) = -0.6
Init P/N = N
Scan Rate (V/s) = 0.05
Segment = 6
Sample Interval (V) = 0.001
Quiet Time (sec) = 2
Sensitivity (A/V) = 1e-5

Segment 1:
Ep = -0.374V
Eh = -0.320V
ip = -7.071e-5A

Segment 2:
Ep = -0.310V
Eh = -0.368V
ip = 5.786e-5A

Segment 3:
Ep = -0.373V
Eh = -0.319V
ip = -6.681e-5A

Segment 4:
Ep = -0.308V
Eh = -0.367V
ip = 5.716e-5A

Segment 5:
Ep = -0.373V
Eh = -0.319V
ip = -6.645e-5A

Segment 6:
Ep = -0.308V
Eh = -0.367V
ip = 5.712e-5A

Potential/V	Current/A

0.000	5.092e-7	1.018e-8
-0.001	4.437e-7	1.906e-8
-0.002	3.916e-7	2.689e-8
-0.003	3.528e-7	3.395e-8
-0.004	3.324e-7	4.059e-8
-0.005	3.204e-7	4.700e-8
-0.006	3.106e-7	5.321e-8
-0.007	2.985e-7	5.918e-8
-0.008	2.873e-7	6.493e-8
-0.009	2.770e-7	7.047e-8
-0.010	2.671e-7	7.581e-8
-0.011	2.576e-7	8.096e-8
-0.012	2.486e-7	8.594e-8
-0.013	2.398e-7	9.073e-8
-0.014	2.313e-7	9.536e-8
-0.015	2.232e-7	9.982e-8
-0.016	2.152e-7	1.041e-7
-0.017	2.074e-7	1.083e-7
-0.018	1.998e-7	1.123e-7
-0.019	1.924e-7	1.161e-7
-0.020	1.851e-7	1.198e-7
-0.021	1.782e-7	1.234e-7
-0.022	1.713e-7	1.268e-7
-0.023	1.646e-7	1.301e-7
-0.024	1.579e-7	1.333e-7
-0.025	1.513e-7	1.363e-7
-0.026	1.448e-7	1.392e-7
-0.027	1.384e-7	1.419e-7
-0.028	1.320e-7	1.446e-7
-0.029	1.258e-7	1.471e-7
-0.030	1.194e-7	1.495e-7
-0.031	1.132e-7	1.518e-7
-0.032	1.071e-7	1.539e-7
-0.033	1.010e-7	1.559e-7
-0.034	9.517e-8	1.578e-7
-0.035	8.927e-8	1.596e-7
-0.036	8.335e-8	1.613e-7
-0.037	7.742e-8	1.628e-7
-0.038	7.154e-8	1.643e-7
-0.039	6.578e-8	1.656e-7
-0.040	6.010e-8	1.668e-7
-0.041	5.440e-8	1.679e-7
-0.042	4.875e-8	1.688e-7
-0.043	4.297e-8	1.697e-7
-0.044	3.718e-8	1.704e-7
-0.045	3.140e-8	1.711e-7
-0.046	2.566e-8	1.716e-7
-0.047	2.000e-8	1.720e-7
-0.048	1.438e-8	1.723e-7
-0.049	8.722e-9	1.724e-7
-0.050	3.024e-9	1.725e-7
-0.051	-2.737e-9	1.724e-7
-0.052	-8.479e-9	1.723e-7
-0.053	-1.426e-8	1.720e-7
-0.054	-2.015e-8	1.716e-7
-0.055	-2.610e-8	1.711e-7
-0.056	-3.219e-8	1.704e-7
-0.057	-3.829e-8	1.697e-7
-0.058	-4.431e-8	1.688e-7
-0.059	-5.036e-8	1.678e-7
-0.060	-5.645e-8	1.666e-7
-0.061	-6.265e-8	1.654e-7
-0.062	-6.904e-8	1.640e-7
-0.063	-7.550e-8	1.625e-7
-0.064	-8.207e-8	1.608e-7
-0.065	-8.868e-8	1.591e-7
-0.066	-9.537e-8	1.572e-7
-0.067	-1.023e-7	1.551e-7
-0.068	-1.093e-7	1.529e-7
-0.069	-1.165e-7	1.506e-7
-0.070	-1.239e-7	1.481e-7
-0.071	-1.314e-7	1.455e-7
-0.072	-1.391e-7	1.427e-7
-0.073	-1.470e-7	1.398e-7
-0.074	-1.552e-7	1.367e-7
-0.075	-1.636e-7	1.334e-7
-0.076	-1.721e-7	1.300e-7
-0.077	-1.807e-7	1.264e-7
-0.078	-1.896e-7	1.226e-7
-0.079	-1.987e-7	1.186e-7
-0.080	-2.082e-7	1.144e-7
-0.081	-2.180e-7	1.101e-7
-0.082	-2.279e-7	1.055e-7
-0.083	-2.382e-7	1.007e-7
-0.084	-2.488e-7	9.576e-8
-0.085	-2.596e-7	9.057e-8
-0.086	-2.707e-7	8.516e-8
-0.087	-2.820e-7	7.952e-8
-0.088	-2.936e-7	7.365e-8
-0.089	-3.053e-7	6.754e-8
-0.090	-3.173e-7	6.119e-8
-0.091	-3.294e-7	5.461e-8
-0.092	-3.417e-7	4.777e-8
-0.093	-3.540e-7	4.069e-8
-0.094	-3.666e-7	3.336e-8
-0.095	-3.793e-7	2.577e-8
-0.096	-3.920e-7	1.793e-8
-0.097	-4.047e-7	9.841e-9
-0.098	-4.172e-7	1.497e-9
-0.099	-4.298e-7	-7.100e-9
-0.100	-4.424e-7	-1.595e-8
-0.101	-4.549e-7	-2.504e-8
-0.102	-4.672e-7	-3.439e-8
-0.103	-4.791e-7	-4.397e-8
-0.104	-4.904e-7	-5.378e-8
-0.105	-5.014e-7	-6.381e-8
-0.106	-5.121e-7	-7.405e-8
-0.107	-5.226e-7	-8.450e-8
-0.108	-5.328e-7	-9.515e-8
-0.109	-5.425e-7	-1.060e-7
-0.110	-5.517e-7	-1.170e-7
-0.111	-5.603e-7	-1.282e-7
-0.112	-5.684e-7	-1.396e-7
-0.113	-5.760e-7	-1.511e-7
-0.114	-5.831e-7	-1.628e-7
-0.115	-5.898e-7	-1.746e-7
-0.116	-5.959e-7	-1.865e-7
-0.117	-6.015e-7	-1.985e-7
-0.118	-6.067e-7	-2.107e-7
-0.119	-6.114e-7	-2.229e-7
-0.120	-6.158e-7	-2.352e-7
-0.121	-6.198e-7	-2.476e-7
-0.122	-6.233e-7	-2.601e-7
-0.123	-6.265e-7	-2.726e-7
-0.124	-6.292e-7	-2.852e-7
-0.125	-6.316e-7	-2.978e-7
-0.126	-6.339e-7	-3.105e-7
-0.127	-6.360e-7	-3.232e-7
-0.128	-6.379e-7	-3.360e-7
-0.129	-6.397e-7	-3.488e-7
-0.130	-6.412e-7	-3.616e-7
-0.131	-6.426e-7	-3.745e-7
-0.132	-6.441e-7	-3.873e-7
-0.133	-6.456e-7	-4.002e-7
-0.134	-6.471e-7	-4.132e-7
-0.135	-6.485e-7	-4.262e-7
-0.136	-6.499e-7	-4.392e-7
-0.137	-6.513e-7	-4.522e-7
-0.138	-6.527e-7	-4.652e-7
-0.139	-6.544e-7	-4.783e-7
-0.140	-6.563e-7	-4.914e-7
-0.141	-6.583e-7	-5.046e-7
-0.142	-6.603e-7	-5.178e-7
-0.143	-6.623e-7	-5.311e-7
-0.144	-6.646e-7	-5.444e-7
-0.145	-6.671e-7	-5.577e-7
-0.146	-6.699e-7	-5.711e-7
-0.147	-6.731e-7	-5.846e-7
-0.148	-6.764e-7	-5.981e-7
-0.149	-6.799e-7	-6.117e-7
-0.150	-6.837e-7	-6.254e-7
-0.151	-6.877e-7	-6.391e-7
-0.152	-6.920e-7	-6.529e-7
-0.153	-6.966e-7	-6.669e-7
-0.154	-7.014e-7	-6.809e-7
-0.155	-7.065e-7	-6.950e-7
-0.156	-7.119e-7	-7.093e-7
-0.157	-7.177e-7	-7.236e-7
-0.158	-7.239e-7	-7.381e-7
-0.159	-7.304e-7	-7.527e-7
-0.160	-7.373e-7	-7.675e-7
-0.161	-7.445e-7	-7.824e-7
-0.162	-7.521e-7	-7.974e-7
-0.163	-7.601e-7	-8.126e-7
-0.164	-7.686e-7	-8.280e-7
-0.165	-7.774e-7	-8.435e-7
-0.166	-7.866e-7	-8.592e-7
-0.167	-7.961e-7	-8.752e-7
-0.168	-8.062e-7	-8.913e-7
-0.169	-8.168e-7	-9.076e-7
-0.170	-8.279e-7	-9.242e-7
-0.171	-8.396e-7	-9.410e-7
-0.172	-8.517e-7	-9.580e-7
-0.173	-8.642e-7	-9.753e-7
-0.174	-8.772e-7	-9.928e-7
-0.175	-8.908e-7	-1.011e-6
-0.176	-9.049e-7	-1.029e-6
-0.177	-9.196e-7	-1.047e-6
-0.178	-9.349e-7	-1.066e-6
-0.179	-9.507e-7	-1.085e-6
-0.180	-9.671e-7	-1.104e-6
-0.181	-9.841e-7	-1.124e-6
-0.182	-1.002e-6	-1.144e-6
-0.183	-1.020e-6	-1.164e-6
-0.184	-1.039e-6	-1.185e-6
-0.185	-1.059e-6	-1.206e-6
-0.186	-1.080e-6	-1.228e-6
-0.187	-1.101e-6	-1.250e-6
-0.188	-1.123e-6	-1.272e-6
-0.189	-1.146e-6	-1.295e-6
-0.190	-1.170e-6	-1.319e-6
-0.191	-1.194e-6	-1.343e-6
-0.192	-1.220e-6	-1.367e-6
-0.193	-1.246e-6	-1.392e-6
-0.194	-1.273e-6	-1.417e-6
-0.195	-1.302e-6	-1.443e-6
-0.196	-1.332e-6	-1.470e-6
-0.197	-1.362e-6	-1.497e-6
-0.198	-1.394e-6	-1.525e-6
-0.199	-1.427e-6	-1.554e-6
-0.200	-1.461e-6	-1.583e-6
-0.201	-1.496e-6	-1.613e-6
-0.202	-1.532e-6	-1.643e-6
-0.203	-1.570e-6	-1.675e-6
-0.204	-1.609e-6	-1.707e-6
-0.205	-1.649e-6	-1.740e-6
-0.206	-1.691e-6	-1.774e-6
-0.207	-1.734e-6	-1.809e-6
-0.208	-1.778e-6	-1.844e-6
-0.209	-1.824e-6	-1.881e-6
-0.210	-1.872e-6	-1.918e-6
-0.211	-1.921e-6	-1.956e-6
-0.212	-1.972e-6	-1.996e-6
-0.213	-2.024e-6	-2.036e-6
-0.214	-2.078e-6	-2.078e-6
-0.215	-2.134e-6	-2.121e-6
-0.216	-2.191e-6	-2.164e-6
-0.217	-2.250e-6	-2.209e-6
-0.218	-2.312e-6	-2.256e-6
-0.219	-2.375e-6	-2.303e-6
-0.220	-2.440e-6	-2.352e-6
-0.221	-2.507e-6	-2.402e-6
-0.222	-2.576e-6	-2.454e-6
-0.223	-2.647e-6	-2.507e-6
-0.224	-2.721e-6	-2.561e-6
-0.225	-2.796e-6	-2.617e-6
-0.226	-2.873e-6	-2.674e-6
-0.227	-2.953e-6	-2.733e-6
-0.228	-3.036e-6	-2.794e-6
-0.229	-3.120e-6	-2.857e-6
-0.230	-3.208e-6	-2.921e-6
-0.231	-3.298e-6	-2.987e-6
-0.232	-3.390e-6	-3.055e-6
-0.233	-3.485e-6	-3.124e-6
-0.234	-3.583e-6	-3.196e-6
-0.235	-3.683e-6	-3.270e-6
-0.236	-3.787e-6	-3.345e-6
-0.237	-3.893e-6	-3.423e-6
-0.238	-4.003e-6	-3.503e-6
-0.239	-4.115e-6	-3.585e-6
-0.240	-4.231e-6	-3.670e-6
-0.241	-4.350e-6	-3.757e-6
-0.242	-4.472e-6	-3.847e-6
-0.243	-4.598e-6	-3.938e-6
-0.244	-4.728e-6	-4.033e-6
-0.245	-4.861e-6	-4.130e-6
-0.246	-4.999e-6	-4.230e-6
-0.247	-5.140e-6	-4.333e-6
-0.248	-5.286e-6	-4.439e-6
-0.249	-5.436e-6	-4.547e-6
-0.250	-5.591e-6	-4.659e-6
-0.251	-5.750e-6	-4.774e-6
-0.252	-5.914e-6	-4.893e-6
-0.253	-6.082e-6	-5.014e-6
-0.254	-6.257e-6	-5.139e-6
-0.255	-6.436e-6	-5.268e-6
-0.256	-6.621e-6	-5.400e-6
-0.257	-6.812e-6	-5.537e-6
-0.258	-7.009e-6	-5.677e-6
-0.259	-7.212e-6	-5.821e-6
-0.260	-7.421e-6	-5.970e-6
-0.261	-7.638e-6	-6.122e-6
-0.262	-7.862e-6	-6.280e-6
-0.263	-8.094e-6	-6.441e-6
-0.264	-8.333e-6	-6.608e-6
-0.265	-8.580e-6	-6.780e-6
-0.266	-8.835e-6	-6.956e-6
-0.267	-9.099e-6	-7.138e-6
-0.268	-9.372e-6	-7.326e-6
-0.269	-9.656e-6	-7.519e-6
-0.270	-9.949e-6	-7.718e-6
-0.271	-1.025e-5	-7.923e-6
-0.272	-1.056e-5	-8.134e-6
-0.273	-1.089e-5	-8.352e-6
-0.274	-1.123e-5	-8.577e-6
-0.275	-1.157e-5	-8.808e-6
-0.276	-1.194e-5	-9.047e-6
-0.277	-1.231e-5	-9.293e-6
-0.278	-1.270e-5	-9.547e-6
-0.279	-1.310e-5	-9.809e-6
-0.280	-1.352e-5	-1.008e-5
-0.281	-1.395e-5	-1.036e-5
-0.282	-1.440e-5	-1.065e-5
-0.283	-1.487e-5	-1.094e-5
-0.284	-1.535e-5	-1.125e-5
-0.285	-1.585e-5	-1.157e-5
-0.286	-1.637e-5	-1.190e-5
-0.287	-1.690e-5	-1.223e-5
-0.288	-1.746e-5	-1.258e-5
-0.289	-1.803e-5	-1.294e-5
-0.290	-1.863e-5	-1.332e-5
-0.291	-1.924e-5	-1.370e-5
-0.292	-1.988e-5	-1.410e-5
-0.293	-2.053e-5	-1.451e-5
-0.294	-2.121e-5	-1.493e-5
-0.295	-2.191e-5	-1.537e-5
-0.296	-2.263e-5	-1.582e-5
-0.297	-2.337e-5	-1.629e-5
-0.298	-2.414e-5	-1.677e-5
-0.299	-2.493e-5	-1.727e-5
-0.300	-2.573e-5	-1.779e-5
-0.301	-2.656e-5	-1.832e-5
-0.302	-2.741e-5	-1.887e-5
-0.303	-2.828e-5	-1.943e-5
-0.304	-2.918e-5	-2.002e-5
-0.305	-3.009e-5	-2.062e-5
-0.306	-3.102e-5	-2.124e-5
-0.307	-3.197e-5	-2.188e-5
-0.308	-3.294e-5	-2.254e-5
-0.309	-3.392e-5	-2.321e-5
-0.310	-3.492e-5	-2.391e-5
-0.311	-3.592e-5	-2.463e-5
-0.312	-3.694e-5	-2.537e-5
-0.313	-3.798e-5	-2.613e-5
-0.314	-3.903e-5	-2.691e-5
-0.315	-4.008e-5	-2.771e-5
-0.316	-4.115e-5	-2.853e-5
-0.317	-4.222e-5	-2.938e-5
-0.318	-4.330e-5	-3.025e-5
-0.319	-4.439e-5	-3.113e-5
-0.320	-4.548e-5	-3.204e-5
-0.321	-4.657e-5	-3.297e-5
-0.322	-4.767e-5	-3.393e-5
-0.323	-4.877e-5	-3.490e-5
-0.324	-4.987e-5	-3.590e-5
-0.325	-5.097e-5	-3.692e-5
-0.326	-5.207e-5	-3.796e-5
-0.327	-5.317e-5	-3.902e-5
-0.328	-5.427e-5	-4.011e-5
-0.329	-5.536e-5	-4.122e-5
-0.330	-5.645e-5	-4.235e-5
-0.331	-5.753e-5	-4.350e-5
-0.332	-5.861e-5	-4.467e-5
-0.333	-5.968e-5	-4.586e-5
-0.334	-6.074e-5	-4.708e-5
-0.335	-6.179e-5	-4.831e-5
-0.336	-6.283e-5	-4.957e-5
-0.337	-6.386e-5	-5.085e-5
-0.338	-6.488e-5	-5.215e-5
-0.339	-6.589e-5	-5.346e-5
-0.340	-6.688e-5	-5.480e-5
-0.341	-6.785e-5	-5.616e-5
-0.342	-6.881e-5	-5.753e-5
-0.343	-6.975e-5	-5.893e-5
-0.344	-7.067e-5	-6.034e-5
-0.345	-7.158e-5	-6.177e-5
-0.346	-7.247e-5	-6.322e-5
-0.347	-7.333e-5	-6.469e-5
-0.348	-7.417e-5	-6.617e-5
-0.349	-7.499e-5	-6.767e-5
-0.350	-7.578e-5	-6.919e-5
-0.351	-7.655e-5	-7.072e-5
-0.352	-7.730e-5	-7.227e-5
-0.353	-7.801e-5	-7.383e-5
-0.354	-7.870e-5	-7.540e-5
-0.355	-7.935e-5	-7.699e-5
-0.356	-7.998e-5	-7.859e-5
-0.357	-8.057e-5	-8.020e-5
-0.358	-8.114e-5	-8.182e-5
-0.359	-8.167e-5	-8.345e-5
-0.360	-8.216e-5	-8.510e-5
-0.361	-8.262e-5	-8.675e-5
-0.362	-8.304e-5	-8.841e-5
-0.363	-8.344e-5	-9.008e-5
-0.364	-8.381e-5	-9.176e-5
-0.365	-8.414e-5	-9.344e-5
-0.366	-8.443e-5	-9.513e-5
-0.367	-8.469e-5	-9.682e-5
-0.368	-8.492e-5	-9.852e-5
-0.369	-8.511e-5	-1.002e-4
-0.370	-8.527e-5	-1.019e-4
-0.371	-8.539e-5	-1.036e-4
-0.372	-8.549e-5	-1.053e-4
-0.373	-8.555e-5	-1.071e-4
-0.374	-8.557e-5	-1.088e-4
-0.375	-8.557e-5	-1.105e-4
-0.376	-8.555e-5	-1.122e-4
-0.377	-8.549e-5	-1.139e-4
-0.378	-8.541e-5	-1.156e-4
-0.379	-8.529e-5	-1.173e-4
-0.380	-8.515e-5	-1.190e-4
-0.381	-8.498e-5	-1.207e-4
-0.382	-8.480e-5	-1.224e-4
-0.383	-8.459e-5	-1.241e-4
-0.384	-8.435e-5	-1.258e-4
-0.385	-8.410e-5	-1.275e-4
-0.386	-8.382e-5	-1.291e-4
-0.387	-8.353e-5	-1.308e-4
-0.388	-8.322e-5	-1.325e-4
-0.389	-8.289e-5	-1.341e-4
-0.390	-8.255e-5	-1.358e-4
-0.391	-8.220e-5	-1.374e-4
-0.392	-8.183e-5	-1.391e-4
-0.393	-8.145e-5	-1.407e-4
-0.394	-8.106e-5	-1.423e-4
-0.395	-8.066e-5	-1.439e-4
-0.396	-8.025e-5	-1.455e-4
-0.397	-7.983e-5	-1.471e-4
-0.398	-7.941e-5	-1.487e-4
-0.399	-7.898e-5	-1.503e-4
-0.400	-7.854e-5	-1.519e-4
-0.401	-7.810e-5	-1.534e-4
-0.402	-7.766e-5	-1.550e-4
-0.403	-7.721e-5	-1.565e-4
-0.404	-7.676e-5	-1.581e-4
-0.405	-7.631e-5	-1.596e-4
-0.406	-7.585e-5	-1.611e-4
-0.407	-7.539e-5	-1.626e-4
-0.408	-7.494e-5	-1.641e-4
-0.409	-7.448e-5	-1.656e-4
-0.410	-7.403e-5	-1.671e-4
-0.411	-7.357e-5	-1.686e-4
-0.412	-7.312e-5	-1.700e-4
-0.413	-7.267e-5	-1.715e-4
-0.414	-7.222e-5	-1.729e-4
-0.415	-7.177e-5	-1.744e-4
-0.416	-7.132e-5	-1.758e-4
-0.417	-7.088e-5	-1.772e-4
-0.418	-7.044e-5	-1.786e-4
-0.419	-7.000e-5	-1.800e-4
-0.420	-6.957e-5	-1.814e-4
-0.421	-6.914e-5	-1.828e-4
-0.422	-6.872e-5	-1.842e-4
-0.423	-6.829e-5	-1.855e-4
-0.424	-6.788e-5	-1.869e-4
-0.425	-6.746e-5	-1.882e-4
-0.426	-6.705e-5	-1.896e-4
-0.427	-6.665e-5	-1.909e-4
-0.428	-6.624e-5	-1.922e-4
-0.429	-6.585e-5	-1.935e-4
-0.430	-6.546e-5	-1.949e-4
-0.431	-6.507e-5	-1.962e-4
-0.432	-6.468e-5	-1.975e-4
-0.433	-6.430e-5	-1.987e-4
-0.434	-6.393e-5	-2.000e-4
-0.435	-6.356e-5	-2.013e-4
-0.436	-6.319e-5	-2.026e-4
-0.437	-6.283e-5	-2.038e-4
-0.438	-6.247e-5	-2.051e-4
-0.439	-6.212e-5	-2.063e-4
-0.440	-6.177e-5	-2.075e-4
-0.441	-6.143e-5	-2.088e-4
-0.442	-6.109e-5	-2.100e-4
-0.443	-6.076e-5	-2.112e-4
-0.444	-6.043e-5	-2.124e-4
-0.445	-6.010e-5	-2.136e-4
-0.446	-5.978e-5	-2.148e-4
-0.447	-5.946e-5	-2.160e-4
-0.448	-5.915e-5	-2.172e-4
-0.449	-5.884e-5	-2.184e-4
-0.450	-5.853e-5	-2.195e-4
-0.451	-5.823e-5	-2.207e-4
-0.452	-5.793e-5	-2.219e-4
-0.453	-5.764e-5	-2.230e-4
-0.454	-5.735e-5	-2.242e-4
-0.455	-5.706e-5	-2.253e-4
-0.456	-5.678e-5	-2.264e-4
-0.457	-5.650e-5	-2.276e-4
-0.458	-5.623e-5	-2.287e-4
-0.459	-5.596e-5	-2.298e-4
-0.460	-5.569e-5	-2.309e-4
-0.461	-5.543e-5	-2.320e-4
-0.462	-5.517e-5	-2.331e-4
-0.463	-5.491e-5	-2.342e-4
-0.464	-5.466e-5	-2.353e-4
-0.465	-5.441e-5	-2.364e-4
-0.466	-5.416e-5	-2.375e-4
-0.467	-5.392e-5	-2.386e-4
-0.468	-5.368e-5	-2.396e-4
-0.469	-5.344e-5	-2.407e-4
-0.470	-5.320e-5	-2.418e-4
-0.471	-5.297e-5	-2.428e-4
-0.472	-5.275e-5	-2.439e-4
-0.473	-5.252e-5	-2.449e-4
-0.474	-5.230e-5	-2.460e-4
-0.475	-5.208e-5	-2.470e-4
-0.476	-5.186e-5	-2.481e-4
-0.477	-5.165e-5	-2.491e-4
-0.478	-5.144e-5	-2.501e-4
-0.479	-5.123e-5	-2.511e-4
-0.480	-5.102e-5	-2.522e-4
-0.481	-5.082e-5	-2.532e-4
-0.482	-5.062e-5	-2.542e-4
-0.483	-5.042e-5	-2.552e-4
-0.484	-5.022e-5	-2.562e-4
-0.485	-5.003e-5	-2.572e-4
-0.486	-4.984e-5	-2.582e-4
-0.487	-4.965e-5	-2.592e-4
-0.488	-4.946e-5	-2.602e-4
-0.489	-4.928e-5	-2.612e-4
-0.490	-4.910e-5	-2.622e-4
-0.491	-4.892e-5	-2.631e-4
-0.492	-4.874e-5	-2.641e-4
-0.493	-4.857e-5	-2.651e-4
-0.494	-4.839e-5	-2.661e-4
-0.495	-4.822e-5	-2.670e-4
-0.496	-4.805e-5	-2.680e-4
-0.497	-4.789e-5	-2.689e-4
-0.498	-4.772e-5	-2.699e-4
-0.499	-4.756e-5	-2.708e-4
-0.500	-4.740e-5	-2.718e-4
-0.501	-4.724e-5	-2.727e-4
-0.502	-4.708e-5	-2.737e-4
-0.503	-4.692e-5	-2.746e-4
-0.504	-4.677e-5	-2.755e-4
-0.505	-4.662e-5	-2.765e-4
-0.506	-4.647e-5	-2.774e-4
-0.507	-4.632e-5	-2.783e-4
-0.508	-4.617e-5	-2.793e-4
-0.509	-4.602e-5	-2.802e-4
-0.510	-4.588e-5	-2.811e-4
-0.511	-4.574e-5	-2.820e-4
-0.512	-4.559e-5	-2.829e-4
-0.513	-4.545e-5	-2.838e-4
-0.514	-4.532e-5	-2.847e-4
-0.515	-4.518e-5	-2.856e-4
-0.516	-4.505e-5	-2.865e-4
-0.517	-4.491e-5	-2.874e-4
-0.518	-4.478e-5	-2.883e-4
-0.519	-4.465e-5	-2.892e-4
-0.520	-4.452e-5	-2.901e-4
-0.521	-4.439e-5	-2.910e-4
-0.522	-4.426e-5	-2.919e-4
-0.523	-4.414e-5	-2.928e-4
-0.524	-4.401e-5	-2.937e-4
-0.525	-4.389e-5	-2.945e-4
-0.526	-4.377e-5	-2.954e-4
-0.527	-4.365e-5	-2.963e-4
-0.528	-4.353e-5	-2.972e-4
-0.529	-4.341e-5	-2.980e-4
-0.530	-4.329e-5	-2.989e-4
-0.531	-4.318e-5	-2.998e-4
-0.532	-4.306e-5	-3.006e-4
-0.533	-4.295e-5	-3.015e-4
-0.534	-4.283e-5	-3.023e-4
-0.535	-4.272e-5	-3.032e-4
-0.536	-4.261e-5	-3.040e-4
-0.537	-4.250e-5	-3.049e-4
-0.538	-4.239e-5	-3.057e-4
-0.539	-4.229e-5	-3.066e-4
-0.540	-4.218e-5	-3.074e-4
-0.541	-4.208e-5	-3.083e-4
-0.542	-4.197e-5	-3.091e-4
-0.543	-4.187e-5	-3.099e-4
-0.544	-4.177e-5	-3.108e-4
-0.545	-4.166e-5	-3.116e-4
-0.546	-4.156e-5	-3.124e-4
-0.547	-4.146e-5	-3.133e-4
-0.548	-4.137e-5	-3.141e-4
-0.549	-4.127e-5	-3.149e-4
-0.550	-4.117e-5	-3.157e-4
-0.551	-4.107e-5	-3.166e-4
-0.552	-4.098e-5	-3.174e-4
-0.553	-4.088e-5	-3.182e-4
-0.554	-4.079e-5	-3.190e-4
-0.555	-4.070e-5	-3.198e-4
-0.556	-4.061e-5	-3.206e-4
-0.557	-4.051e-5	-3.215e-4
-0.558	-4.042e-5	-3.223e-4
-0.559	-4.033e-5	-3.231e-4
-0.560	-4.025e-5	-3.239e-4
-0.561	-4.016e-5	-3.247e-4
-0.562	-4.007e-5	-3.255e-4
-0.563	-3.998e-5	-3.263e-4
-0.564	-3.990e-5	-3.271e-4
-0.565	-3.981e-5	-3.279e-4
-0.566	-3.973e-5	-3.287e-4
-0.567	-3.964e-5	-3.295e-4
-0.568	-3.956e-5	-3.303e-4
-0.569	-3.948e-5	-3.310e-4
-0.570	-3.939e-5	-3.318e-4
-0.571	-3.931e-5	-3.326e-4
-0.572	-3.923e-5	-3.334e-4
-0.573	-3.915e-5	-3.342e-4
-0.574	-3.907e-5	-3.350e-4
-0.575	-3.899e-5	-3.357e-4
-0.576	-3.892e-5	-3.365e-4
-0.577	-3.884e-5	-3.373e-4
-0.578	-3.876e-5	-3.381e-4
-0.579	-3.869e-5	-3.389e-4
-0.580	-3.861e-5	-3.396e-4
-0.581	-3.854e-5	-3.404e-4
-0.582	-3.846e-5	-3.412e-4
-0.583	-3.839e-5	-3.419e-4
-0.584	-3.831e-5	-3.427e-4
-0.585	-3.824e-5	-3.435e-4
-0.586	-3.817e-5	-3.442e-4
-0.587	-3.810e-5	-3.450e-4
-0.588	-3.803e-5	-3.457e-4
-0.589	-3.795e-5	-3.465e-4
-0.590	-3.788e-5	-3.473e-4
-0.591	-3.781e-5	-3.480e-4
-0.592	-3.774e-5	-3.488e-4
-0.593	-3.768e-5	-3.495e-4
-0.594	-3.761e-5	-3.503e-4
-0.595	-3.754e-5	-3.510e-4
-0.596	-3.747e-5	-3.518e-4
-0.597	-3.741e-5	-3.525e-4
-0.598	-3.734e-5	-3.533e-4
-0.599	-3.727e-5	-3.540e-4
-0.600	-3.715e-5	-7.429e-7
-0.599	-3.701e-5	-1.483e-6
-0.598	-3.689e-5	-2.221e-6
-0.597	-3.678e-5	-2.957e-6
-0.596	-3.669e-5	-3.691e-6
-0.595	-3.661e-5	-4.423e-6
-0.594	-3.653e-5	-5.153e-6
-0.593	-3.645e-5	-5.883e-6
-0.592	-3.638e-5	-6.610e-6
-0.591	-3.630e-5	-7.336e-6
-0.590	-3.622e-5	-8.060e-6
-0.589	-3.615e-5	-8.783e-6
-0.588	-3.608e-5	-9.505e-6
-0.587	-3.600e-5	-1.023e-5
-0.586	-3.593e-5	-1.094e-5
-0.585	-3.586e-5	-1.166e-5
-0.584	-3.579e-5	-1.238e-5
-0.583	-3.573e-5	-1.309e-5
-0.582	-3.566e-5	-1.380e-5
-0.581	-3.559e-5	-1.452e-5
-0.580	-3.552e-5	-1.523e-5
-0.579	-3.546e-5	-1.594e-5
-0.578	-3.539e-5	-1.664e-5
-0.577	-3.532e-5	-1.735e-5
-0.576	-3.526e-5	-1.806e-5
-0.575	-3.520e-5	-1.876e-5
-0.574	-3.513e-5	-1.946e-5
-0.573	-3.507e-5	-2.016e-5
-0.572	-3.501e-5	-2.086e-5
-0.571	-3.494e-5	-2.156e-5
-0.570	-3.488e-5	-2.226e-5
-0.569	-3.482e-5	-2.296e-5
-0.568	-3.476e-5	-2.365e-5
-0.567	-3.470e-5	-2.435e-5
-0.566	-3.464e-5	-2.504e-5
-0.565	-3.458e-5	-2.573e-5
-0.564	-3.452e-5	-2.642e-5
-0.563	-3.446e-5	-2.711e-5
-0.562	-3.440e-5	-2.780e-5
-0.561	-3.434e-5	-2.848e-5
-0.560	-3.428e-5	-2.917e-5
-0.559	-3.423e-5	-2.985e-5
-0.558	-3.417e-5	-3.054e-5
-0.557	-3.411e-5	-3.122e-5
-0.556	-3.406e-5	-3.190e-5
-0.555	-3.400e-5	-3.258e-5
-0.554	-3.394e-5	-3.326e-5
-0.553	-3.389e-5	-3.394e-5
-0.552	-3.383e-5	-3.461e-5
-0.551	-3.378e-5	-3.529e-5
-0.550	-3.372e-5	-3.596e-5
-0.549	-3.367e-5	-3.664e-5
-0.548	-3.361e-5	-3.731e-5
-0.547	-3.356e-5	-3.798e-5
-0.546	-3.350e-5	-3.865e-5
-0.545	-3.345e-5	-3.932e-5
-0.544	-3.340e-5	-3.999e-5
-0.543	-3.334e-5	-4.066e-5
-0.542	-3.329e-5	-4.132e-5
-0.541	-3.324e-5	-4.199e-5
-0.540	-3.318e-5	-4.265e-5
-0.539	-3.313e-5	-4.331e-5
-0.538	-3.308e-5	-4.397e-5
-0.537	-3.303e-5	-4.463e-5
-0.536	-3.297e-5	-4.529e-5
-0.535	-3.292e-5	-4.595e-5
-0.534	-3.287e-5	-4.661e-5
-0.533	-3.282e-5	-4.727e-5
-0.532	-3.277e-5	-4.792e-5
-0.531	-3.272e-5	-4.858e-5
-0.530	-3.267e-5	-4.923e-5
-0.529	-3.262e-5	-4.988e-5
-0.528	-3.256e-5	-5.053e-5
-0.527	-3.251e-5	-5.118e-5
-0.526	-3.246e-5	-5.183e-5
-0.525	-3.241e-5	-5.248e-5
-0.524	-3.236e-5	-5.313e-5
-0.523	-3.231e-5	-5.377e-5
-0.522	-3.226e-5	-5.442e-5
-0.521	-3.221e-5	-5.506e-5
-0.520	-3.216e-5	-5.571e-5
-0.519	-3.211e-5	-5.635e-5
-0.518	-3.206e-5	-5.699e-5
-0.517	-3.200e-5	-5.763e-5
-0.516	-3.195e-5	-5.827e-5
-0.515	-3.190e-5	-5.891e-5
-0.514	-3.185e-5	-5.954e-5
-0.513	-3.180e-5	-6.018e-5
-0.512	-3.175e-5	-6.081e-5
-0.511	-3.170e-5	-6.145e-5
-0.510	-3.165e-5	-6.208e-5
-0.509	-3.160e-5	-6.271e-5
-0.508	-3.154e-5	-6.334e-5
-0.507	-3.149e-5	-6.397e-5
-0.506	-3.144e-5	-6.460e-5
-0.505	-3.139e-5	-6.523e-5
-0.504	-3.134e-5	-6.586e-5
-0.503	-3.128e-5	-6.648e-5
-0.502	-3.123e-5	-6.711e-5
-0.501	-3.118e-5	-6.773e-5
-0.500	-3.112e-5	-6.835e-5
-0.499	-3.107e-5	-6.898e-5
-0.498	-3.102e-5	-6.960e-5
-0.497	-3.096e-5	-7.022e-5
-0.496	-3.091e-5	-7.083e-5
-0.495	-3.085e-5	-7.145e-5
-0.494	-3.080e-5	-7.207e-5
-0.493	-3.074e-5	-7.268e-5
-0.492	-3.068e-5	-7.329e-5
-0.491	-3.063e-5	-7.391e-5
-0.490	-3.057e-5	-7.452e-5
-0.489	-3.051e-5	-7.513e-5
-0.488	-3.045e-5	-7.574e-5
-0.487	-3.040e-5	-7.635e-5
-0.486	-3.034e-5	-7.695e-5
-0.485	-3.027e-5	-7.756e-5
-0.484	-3.021e-5	-7.816e-5
-0.483	-3.015e-5	-7.877e-5
-0.482	-3.009e-5	-7.937e-5
-0.481	-3.002e-5	-7.997e-5
-0.480	-2.996e-5	-8.057e-5
-0.479	-2.989e-5	-8.116e-5
-0.478	-2.983e-5	-8.176e-5
-0.477	-2.976e-5	-8.236e-5
-0.476	-2.969e-5	-8.295e-5
-0.475	-2.962e-5	-8.354e-5
-0.474	-2.955e-5	-8.413e-5
-0.473	-2.948e-5	-8.472e-5
-0.472	-2.941e-5	-8.531e-5
-0.471	-2.934e-5	-8.590e-5
-0.470	-2.926e-5	-8.648e-5
-0.469	-2.918e-5	-8.707e-5
-0.468	-2.910e-5	-8.765e-5
-0.467	-2.902e-5	-8.823e-5
-0.466	-2.894e-5	-8.881e-5
-0.465	-2.886e-5	-8.939e-5
-0.464	-2.877e-5	-8.996e-5
-0.463	-2.869e-5	-9.053e-5
-0.462	-2.860e-5	-9.111e-5
-0.461	-2.851e-5	-9.168e-5
-0.460	-2.842e-5	-9.225e-5
-0.459	-2.832e-5	-9.281e-5
-0.458	-2.823e-5	-9.338e-5
-0.457	-2.813e-5	-9.394e-5
-0.456	-2.803e-5	-9.450e-5
-0.455	-2.793e-5	-9.506e-5
-0.454	-2.782e-5	-9.561e-5
-0.453	-2.771e-5	-9.617e-5
-0.452	-2.760e-5	-9.672e-5
-0.451	-2.749e-5	-9.727e-5
-0.450	-2.737e-5	-9.782e-5
-0.449	-2.725e-5	-9.836e-5
-0.448	-2.713e-5	-9.891e-5
-0.447	-2.700e-5	-9.945e-5
-0.446	-2.687e-5	-9.998e-5
-0.445	-2.674e-5	-1.005e-4
-0.444	-2.661e-5	-1.011e-4
-0.443	-2.647e-5	-1.016e-4
-0.442	-2.632e-5	-1.021e-4
-0.441	-2.618e-5	-1.026e-4
-0.440	-2.603e-5	-1.032e-4
-0.439	-2.587e-5	-1.037e-4
-0.438	-2.571e-5	-1.042e-4
-0.437	-2.554e-5	-1.047e-4
-0.436	-2.537e-5	-1.052e-4
-0.435	-2.520e-5	-1.057e-4
-0.434	-2.502e-5	-1.062e-4
-0.433	-2.484e-5	-1.067e-4
-0.432	-2.465e-5	-1.072e-4
-0.431	-2.445e-5	-1.077e-4
-0.430	-2.425e-5	-1.082e-4
-0.429	-2.404e-5	-1.086e-4
-0.428	-2.383e-5	-1.091e-4
-0.427	-2.361e-5	-1.096e-4
-0.426	-2.338e-5	-1.101e-4
-0.425	-2.314e-5	-1.105e-4
-0.424	-2.290e-5	-1.110e-4
-0.423	-2.265e-5	-1.114e-4
-0.422	-2.240e-5	-1.119e-4
-0.421	-2.213e-5	-1.123e-4
-0.420	-2.186e-5	-1.128e-4
-0.419	-2.158e-5	-1.132e-4
-0.418	-2.129e-5	-1.136e-4
-0.417	-2.099e-5	-1.140e-4
-0.416	-2.068e-5	-1.145e-4
-0.415	-2.036e-5	-1.149e-4
-0.414	-2.004e-5	-1.153e-4
-0.413	-1.970e-5	-1.157e-4
-0.412	-1.935e-5	-1.160e-4
-0.411	-1.899e-5	-1.164e-4
-0.410	-1.862e-5	-1.168e-4
-0.409	-1.824e-5	-1.172e-4
-0.408	-1.784e-5	-1.175e-4
-0.407	-1.744e-5	-1.179e-4
-0.406	-1.702e-5	-1.182e-4
-0.405	-1.659e-5	-1.185e-4
-0.404	-1.614e-5	-1.189e-4
-0.403	-1.569e-5	-1.192e-4
-0.402	-1.521e-5	-1.195e-4
-0.401	-1.473e-5	-1.198e-4
-0.400	-1.423e-5	-1.201e-4
-0.399	-1.372e-5	-1.203e-4
-0.398	-1.319e-5	-1.206e-4
-0.397	-1.264e-5	-1.209e-4
-0.396	-1.208e-5	-1.211e-4
-0.395	-1.151e-5	-1.213e-4
-0.394	-1.092e-5	-1.215e-4
-0.393	-1.032e-5	-1.217e-4
-0.392	-9.698e-6	-1.219e-4
-0.391	-9.058e-6	-1.221e-4
-0.390	-8.402e-6	-1.223e-4
-0.389	-7.729e-6	-1.224e-4
-0.388	-7.040e-6	-1.226e-4
-0.387	-6.336e-6	-1.227e-4
-0.386	-5.614e-6	-1.228e-4
-0.385	-4.874e-6	-1.229e-4
-0.384	-4.118e-6	-1.230e-4
-0.383	-3.346e-6	-1.231e-4
-0.382	-2.561e-6	-1.231e-4
-0.381	-1.759e-6	-1.232e-4
-0.380	-9.416e-7	-1.232e-4
-0.379	-1.074e-7	-1.232e-4
-0.378	7.427e-7	-1.232e-4
-0.377	1.606e-6	-1.231e-4
-0.376	2.482e-6	-1.231e-4
-0.375	3.371e-6	-1.230e-4
-0.374	4.272e-6	-1.229e-4
-0.373	5.186e-6	-1.228e-4
-0.372	6.112e-6	-1.227e-4
-0.371	7.047e-6	-1.226e-4
-0.370	7.992e-6	-1.224e-4
-0.369	8.944e-6	-1.222e-4
-0.368	9.904e-6	-1.220e-4
-0.367	1.087e-5	-1.218e-4
-0.366	1.185e-5	-1.216e-4
-0.365	1.283e-5	-1.213e-4
-0.364	1.381e-5	-1.210e-4
-0.363	1.480e-5	-1.207e-4
-0.362	1.578e-5	-1.204e-4
-0.361	1.676e-5	-1.201e-4
-0.360	1.774e-5	-1.197e-4
-0.359	1.872e-5	-1.194e-4
-0.358	1.970e-5	-1.190e-4
-0.357	2.067e-5	-1.186e-4
-0.356	2.164e-5	-1.181e-4
-0.355	2.259e-5	-1.177e-4
-0.354	2.354e-5	-1.172e-4
-0.353	2.447e-5	-1.167e-4
-0.352	2.539e-5	-1.162e-4
-0.351	2.630e-5	-1.157e-4
-0.350	2.720e-5	-1.151e-4
-0.349	2.808e-5	-1.146e-4
-0.348	2.895e-5	-1.140e-4
-0.347	2.980e-5	-1.134e-4
-0.346	3.063e-5	-1.128e-4
-0.345	3.144e-5	-1.122e-4
-0.344	3.223e-5	-1.115e-4
-0.343	3.299e-5	-1.109e-4
-0.342	3.374e-5	-1.102e-4
-0.341	3.446e-5	-1.095e-4
-0.340	3.516e-5	-1.088e-4
-0.339	3.584e-5	-1.081e-4
-0.338	3.649e-5	-1.073e-4
-0.337	3.712e-5	-1.066e-4
-0.336	3.772e-5	-1.058e-4
-0.335	3.829e-5	-1.051e-4
-0.334	3.885e-5	-1.043e-4
-0.333	3.937e-5	-1.035e-4
-0.332	3.987e-5	-1.027e-4
-0.331	4.035e-5	-1.019e-4
-0.330	4.079e-5	-1.011e-4
-0.329	4.121e-5	-1.003e-4
-0.328	4.161e-5	-9.943e-5
-0.327	4.198e-5	-9.859e-5
-0.326	4.233e-5	-9.775e-5
-0.325	4.265e-5	-9.689e-5
-0.324	4.295e-5	-9.604e-5
-0.323	4.323e-5	-9.517e-5
-0.322	4.347e-5	-9.430e-5
-0.321	4.370e-5	-9.343e-5
-0.320	4.391e-5	-9.255e-5
-0.319	4.409e-5	-9.167e-5
-0.318	4.425e-5	-9.078e-5
-0.317	4.439e-5	-8.989e-5
-0.316	4.451e-5	-8.900e-5
-0.315	4.461e-5	-8.811e-5
-0.314	4.470e-5	-8.722e-5
-0.313	4.476e-5	-8.632e-5
-0.312	4.481e-5	-8.543e-5
-0.311	4.484e-5	-8.453e-5
-0.310	4.485e-5	-8.363e-5
-0.309	4.485e-5	-8.274e-5
-0.308	4.484e-5	-8.184e-5
-0.307	4.481e-5	-8.094e-5
-0.306	4.477e-5	-8.005e-5
-0.305	4.472e-5	-7.915e-5
-0.304	4.465e-5	-7.826e-5
-0.303	4.457e-5	-7.737e-5
-0.302	4.448e-5	-7.648e-5
-0.301	4.438e-5	-7.559e-5
-0.300	4.427e-5	-7.471e-5
-0.299	4.415e-5	-7.382e-5
-0.298	4.403e-5	-7.294e-5
-0.297	4.389e-5	-7.206e-5
-0.296	4.375e-5	-7.119e-5
-0.295	4.360e-5	-7.032e-5
-0.294	4.345e-5	-6.945e-5
-0.293	4.329e-5	-6.858e-5
-0.292	4.312e-5	-6.772e-5
-0.291	4.295e-5	-6.686e-5
-0.290	4.278e-5	-6.601e-5
-0.289	4.261e-5	-6.515e-5
-0.288	4.243e-5	-6.431e-5
-0.287	4.225e-5	-6.346e-5
-0.286	4.206e-5	-6.262e-5
-0.285	4.187e-5	-6.178e-5
-0.284	4.169e-5	-6.095e-5
-0.283	4.150e-5	-6.012e-5
-0.282	4.130e-5	-5.929e-5
-0.281	4.111e-5	-5.847e-5
-0.280	4.092e-5	-5.765e-5
-0.279	4.073e-5	-5.684e-5
-0.278	4.053e-5	-5.603e-5
-0.277	4.034e-5	-5.522e-5
-0.276	4.014e-5	-5.442e-5
-0.275	3.995e-5	-5.362e-5
-0.274	3.976e-5	-5.282e-5
-0.273	3.956e-5	-5.203e-5
-0.272	3.937e-5	-5.124e-5
-0.271	3.918e-5	-5.046e-5
-0.270	3.899e-5	-4.968e-5
-0.269	3.880e-5	-4.890e-5
-0.268	3.861e-5	-4.813e-5
-0.267	3.842e-5	-4.736e-5
-0.266	3.824e-5	-4.660e-5
-0.265	3.805e-5	-4.584e-5
-0.264	3.787e-5	-4.508e-5
-0.263	3.768e-5	-4.433e-5
-0.262	3.750e-5	-4.358e-5
-0.261	3.732e-5	-4.283e-5
-0.260	3.714e-5	-4.209e-5
-0.259	3.697e-5	-4.135e-5
-0.258	3.679e-5	-4.061e-5
-0.257	3.661e-5	-3.988e-5
-0.256	3.644e-5	-3.915e-5
-0.255	3.627e-5	-3.843e-5
-0.254	3.609e-5	-3.770e-5
-0.253	3.592e-5	-3.699e-5
-0.252	3.575e-5	-3.627e-5
-0.251	3.558e-5	-3.556e-5
-0.250	3.541e-5	-3.485e-5
-0.249	3.525e-5	-3.415e-5
-0.248	3.508e-5	-3.344e-5
-0.247	3.491e-5	-3.275e-5
-0.246	3.475e-5	-3.205e-5
-0.245	3.458e-5	-3.136e-5
-0.244	3.442e-5	-3.067e-5
-0.243	3.425e-5	-2.999e-5
-0.242	3.409e-5	-2.930e-5
-0.241	3.393e-5	-2.863e-5
-0.240	3.376e-5	-2.795e-5
-0.239	3.360e-5	-2.728e-5
-0.238	3.344e-5	-2.661e-5
-0.237	3.327e-5	-2.594e-5
-0.236	3.311e-5	-2.528e-5
-0.235	3.295e-5	-2.462e-5
-0.234	3.279e-5	-2.397e-5
-0.233	3.263e-5	-2.331e-5
-0.232	3.246e-5	-2.266e-5
-0.231	3.230e-5	-2.202e-5
-0.230	3.214e-5	-2.138e-5
-0.229	3.197e-5	-2.074e-5
-0.228	3.181e-5	-2.010e-5
-0.227	3.165e-5	-1.947e-5
-0.226	3.148e-5	-1.884e-5
-0.225	3.132e-5	-1.821e-5
-0.224	3.115e-5	-1.759e-5
-0.223	3.099e-5	-1.697e-5
-0.222	3.083e-5	-1.635e-5
-0.221	3.066e-5	-1.574e-5
-0.220	3.050e-5	-1.513e-5
-0.219	3.033e-5	-1.452e-5
-0.218	3.016e-5	-1.392e-5
-0.217	3.000e-5	-1.332e-5
-0.216	2.983e-5	-1.272e-5
-0.215	2.967e-5	-1.213e-5
-0.214	2.950e-5	-1.154e-5
-0.213	2.934e-5	-1.095e-5
-0.212	2.917e-5	-1.037e-5
-0.211	2.900e-5	-9.789e-6
-0.210	2.884e-5	-9.212e-6
-0.209	2.867e-5	-8.639e-6
-0.208	2.851e-5	-8.068e-6
-0.207	2.834e-5	-7.502e-6
-0.206	2.818e-5	-6.938e-6
-0.205	2.801e-5	-6.378e-6
-0.204	2.785e-5	-5.821e-6
-0.203	2.768e-5	-5.267e-6
-0.202	2.752e-5	-4.717e-6
-0.201	2.736e-5	-4.170e-6
-0.200	2.719e-5	-3.626e-6
-0.199	2.703e-5	-3.085e-6
-0.198	2.687e-5	-2.548e-6
-0.197	2.671e-5	-2.013e-6
-0.196	2.655e-5	-1.483e-6
-0.195	2.639e-5	-9.547e-7
-0.194	2.623e-5	-4.302e-7
-0.193	2.607e-5	9.126e-8
-0.192	2.591e-5	6.095e-7
-0.191	2.575e-5	1.125e-6
-0.190	2.560e-5	1.637e-6
-0.189	2.544e-5	2.145e-6
-0.188	2.529e-5	2.651e-6
-0.187	2.513e-5	3.154e-6
-0.186	2.498e-5	3.653e-6
-0.185	2.483e-5	4.150e-6
-0.184	2.468e-5	4.644e-6
-0.183	2.453e-5	5.134e-6
-0.182	2.438e-5	5.622e-6
-0.181	2.423e-5	6.106e-6
-0.180	2.408e-5	6.588e-6
-0.179	2.393e-5	7.066e-6
-0.178	2.379e-5	7.542e-6
-0.177	2.364e-5	8.015e-6
-0.176	2.350e-5	8.485e-6
-0.175	2.336e-5	8.952e-6
-0.174	2.322e-5	9.416e-6
-0.173	2.307e-5	9.878e-6
-0.172	2.293e-5	1.034e-5
-0.171	2.280e-5	1.079e-5
-0.170	2.266e-5	1.125e-5
-0.169	2.252e-5	1.170e-5
-0.168	2.239e-5	1.214e-5
-0.167	2.225e-5	1.259e-5
-0.166	2.212e-5	1.303e-5
-0.165	2.199e-5	1.347e-5
-0.164	2.186e-5	1.391e-5
-0.163	2.173e-5	1.434e-5
-0.162	2.160e-5	1.477e-5
-0.161	2.147e-5	1.520e-5
-0.160	2.135e-5	1.563e-5
-0.159	2.122e-5	1.606e-5
-0.158	2.110e-5	1.648e-5
-0.157	2.097e-5	1.690e-5
-0.156	2.085e-5	1.731e-5
-0.155	2.073e-5	1.773e-5
-0.154	2.061e-5	1.814e-5
-0.153	2.050e-5	1.855e-5
-0.152	2.038e-5	1.896e-5
-0.151	2.026e-5	1.936e-5
-0.150	2.015e-5	1.977e-5
-0.149	2.004e-5	2.017e-5
-0.148	1.993e-5	2.057e-5
-0.147	1.982e-5	2.096e-5
-0.146	1.971e-5	2.136e-5
-0.145	1.960e-5	2.175e-5
-0.144	1.949e-5	2.214e-5
-0.143	1.939e-5	2.253e-5
-0.142	1.928e-5	2.291e-5
-0.141	1.918e-5	2.330e-5
-0.140	1.908e-5	2.368e-5
-0.139	1.898e-5	2.406e-5
-0.138	1.888e-5	2.443e-5
-0.137	1.878e-5	2.481e-5
-0.136	1.869e-5	2.518e-5
-0.135	1.859e-5	2.556e-5
-0.134	1.850e-5	2.593e-5
-0.133	1.841e-5	2.629e-5
-0.132	1.831e-5	2.666e-5
-0.131	1.823e-5	2.702e-5
-0.130	1.814e-5	2.739e-5
-0.129	1.805e-5	2.775e-5
-0.128	1.796e-5	2.811e-5
-0.127	1.788e-5	2.846e-5
-0.126	1.780e-5	2.882e-5
-0.125	1.772e-5	2.918e-5
-0.124	1.764e-5	2.953e-5
-0.123	1.756e-5	2.988e-5
-0.122	1.748e-5	3.023e-5
-0.121	1.741e-5	3.058e-5
-0.120	1.733e-5	3.092e-5
-0.119	1.726e-5	3.127e-5
-0.118	1.719e-5	3.161e-5
-0.117	1.711e-5	3.195e-5
-0.116	1.704e-5	3.230e-5
-0.115	1.698e-5	3.264e-5
-0.114	1.691e-5	3.297e-5
-0.113	1.684e-5	3.331e-5
-0.112	1.677e-5	3.365e-5
-0.111	1.671e-5	3.398e-5
-0.110	1.664e-5	3.431e-5
-0.109	1.658e-5	3.464e-5
-0.108	1.651e-5	3.497e-5
-0.107	1.645e-5	3.530e-5
-0.106	1.638e-5	3.563e-5
-0.105	1.632e-5	3.596e-5
-0.104	1.626e-5	3.628e-5
-0.103	1.620e-5	3.661e-5
-0.102	1.613e-5	3.693e-5
-0.101	1.607e-5	3.725e-5
-0.100	1.601e-5	3.757e-5
-0.099	1.594e-5	3.789e-5
-0.098	1.588e-5	3.821e-5
-0.097	1.581e-5	3.852e-5
-0.096	1.575e-5	3.884e-5
-0.095	1.569e-5	3.915e-5
-0.094	1.562e-5	3.946e-5
-0.093	1.555e-5	3.978e-5
-0.092	1.549e-5	4.009e-5
-0.091	1.542e-5	4.039e-5
-0.090	1.536e-5	4.070e-5
-0.089	1.529e-5	4.101e-5
-0.088	1.522e-5	4.131e-5
-0.087	1.516e-5	4.161e-5
-0.086	1.509e-5	4.192e-5
-0.085	1.502e-5	4.222e-5
-0.084	1.495e-5	4.252e-5
-0.083	1.489e-5	4.281e-5
-0.082	1.482e-5	4.311e-5
-0.081	1.475e-5	4.340e-5
-0.080	1.468e-5	4.370e-5
-0.079	1.461e-5	4.399e-5
-0.078	1.455e-5	4.428e-5
-0.077	1.448e-5	4.457e-5
-0.076	1.441e-5	4.486e-5
-0.075	1.435e-5	4.515e-5
-0.074	1.428e-5	4.543e-5
-0.073	1.421e-5	4.572e-5
-0.072	1.415e-5	4.600e-5
-0.071	1.408e-5	4.628e-5
-0.070	1.401e-5	4.656e-5
-0.069	1.395e-5	4.684e-5
-0.068	1.388e-5	4.712e-5
-0.067	1.382e-5	4.739e-5
-0.066	1.375e-5	4.767e-5
-0.065	1.369e-5	4.794e-5
-0.064	1.363e-5	4.822e-5
-0.063	1.357e-5	4.849e-5
-0.062	1.350e-5	4.876e-5
-0.061	1.344e-5	4.903e-5
-0.060	1.338e-5	4.929e-5
-0.059	1.332e-5	4.956e-5
-0.058	1.326e-5	4.982e-5
-0.057	1.320e-5	5.009e-5
-0.056	1.314e-5	5.035e-5
-0.055	1.308e-5	5.061e-5
-0.054	1.302e-5	5.087e-5
-0.053	1.296e-5	5.113e-5
-0.052	1.290e-5	5.139e-5
-0.051	1.285e-5	5.165e-5
-0.050	1.279e-5	5.190e-5
-0.049	1.274e-5	5.216e-5
-0.048	1.268e-5	5.241e-5
-0.047	1.262e-5	5.266e-5
-0.046	1.257e-5	5.292e-5
-0.045	1.251e-5	5.317e-5
-0.044	1.246e-5	5.342e-5
-0.043	1.241e-5	5.366e-5
-0.042	1.235e-5	5.391e-5
-0.041	1.230e-5	5.416e-5
-0.040	1.225e-5	5.440e-5
-0.039	1.220e-5	5.465e-5
-0.038	1.214e-5	5.489e-5
-0.037	1.209e-5	5.513e-5
-0.036	1.204e-5	5.537e-5
-0.035	1.199e-5	5.561e-5
-0.034	1.194e-5	5.585e-5
-0.033	1.189e-5	5.609e-5
-0.032	1.184e-5	5.632e-5
-0.031	1.179e-5	5.656e-5
-0.030	1.175e-5	5.679e-5
-0.029	1.170e-5	5.703e-5
-0.028	1.165e-5	5.726e-5
-0.027	1.160e-5	5.749e-5
-0.026	1.156e-5	5.773e-5
-0.025	1.151e-5	5.796e-5
-0.024	1.146e-5	5.818e-5
-0.023	1.142e-5	5.841e-5
-0.022	1.137e-5	5.864e-5
-0.021	1.133e-5	5.887e-5
-0.020	1.128e-5	5.909e-5
-0.019	1.124e-5	5.932e-5
-0.018	1.119e-5	5.954e-5
-0.017	1.115e-5	5.976e-5
-0.016	1.111e-5	5.999e-5
-0.015	1.106e-5	6.021e-5
-0.014	1.102e-5	6.043e-5
-0.013	1.098e-5	6.065e-5
-0.012	1.093e-5	6.087e-5
-0.011	1.089e-5	6.108e-5
-0.010	1.085e-5	6.130e-5
-0.009	1.081e-5	6.152e-5
-0.008	1.077e-5	6.173e-5
-0.007	1.073e-5	6.195e-5
-0.006	1.069e-5	6.216e-5
-0.005	1.065e-5	6.237e-5
-0.004	1.061e-5	6.259e-5
-0.003	1.057e-5	6.280e-5
-0.002	1.053e-5	6.301e-5
-0.001	1.049e-5	6.322e-5
-0.000	1.031e-5	2.063e-7
-0.001	1.012e-5	4.087e-7
-0.002	9.961e-6	6.079e-7
-0.003	9.832e-6	8.045e-7
-0.004	9.745e-6	9.994e-7
-0.005	9.678e-6	1.193e-6
-0.006	9.618e-6	1.385e-6
-0.007	9.555e-6	1.576e-6
-0.008	9.494e-6	1.766e-6
-0.009	9.435e-6	1.955e-6
-0.010	9.378e-6	2.143e-6
-0.011	9.323e-6	2.329e-6
-0.012	9.269e-6	2.514e-6
-0.013	9.216e-6	2.699e-6
-0.014	9.165e-6	2.882e-6
-0.015	9.114e-6	3.064e-6
-0.016	9.064e-6	3.246e-6
-0.017	9.015e-6	3.426e-6
-0.018	8.967e-6	3.605e-6
-0.019	8.919e-6	3.784e-6
-0.020	8.873e-6	3.961e-6
-0.021	8.827e-6	4.138e-6
-0.022	8.781e-6	4.313e-6
-0.023	8.736e-6	4.488e-6
-0.024	8.691e-6	4.662e-6
-0.025	8.646e-6	4.835e-6
-0.026	8.602e-6	5.007e-6
-0.027	8.559e-6	5.178e-6
-0.028	8.516e-6	5.348e-6
-0.029	8.473e-6	5.518e-6
-0.030	8.431e-6	5.686e-6
-0.031	8.389e-6	5.854e-6
-0.032	8.347e-6	6.021e-6
-0.033	8.306e-6	6.187e-6
-0.034	8.266e-6	6.353e-6
-0.035	8.226e-6	6.517e-6
-0.036	8.186e-6	6.681e-6
-0.037	8.146e-6	6.844e-6
-0.038	8.106e-6	7.006e-6
-0.039	8.067e-6	7.167e-6
-0.040	8.027e-6	7.328e-6
-0.041	7.988e-6	7.487e-6
-0.042	7.949e-6	7.646e-6
-0.043	7.910e-6	7.805e-6
-0.044	7.872e-6	7.962e-6
-0.045	7.833e-6	8.119e-6
-0.046	7.794e-6	8.275e-6
-0.047	7.756e-6	8.430e-6
-0.048	7.718e-6	8.584e-6
-0.049	7.680e-6	8.738e-6
-0.050	7.643e-6	8.891e-6
-0.051	7.605e-6	9.043e-6
-0.052	7.568e-6	9.194e-6
-0.053	7.530e-6	9.345e-6
-0.054	7.493e-6	9.494e-6
-0.055	7.456e-6	9.644e-6
-0.056	7.418e-6	9.792e-6
-0.057	7.381e-6	9.940e-6
-0.058	7.343e-6	1.009e-5
-0.059	7.306e-6	1.023e-5
-0.060	7.269e-6	1.038e-5
-0.061	7.231e-6	1.052e-5
-0.062	7.194e-6	1.067e-5
-0.063	7.156e-6	1.081e-5
-0.064	7.119e-6	1.095e-5
-0.065	7.081e-6	1.109e-5
-0.066	7.043e-6	1.123e-5
-0.067	7.004e-6	1.137e-5
-0.068	6.966e-6	1.151e-5
-0.069	6.928e-6	1.165e-5
-0.070	6.889e-6	1.179e-5
-0.071	6.850e-6	1.193e-5
-0.072	6.811e-6	1.206e-5
-0.073	6.771e-6	1.220e-5
-0.074	6.732e-6	1.233e-5
-0.075	6.692e-6	1.247e-5
-0.076	6.652e-6	1.260e-5
-0.077	6.612e-6	1.273e-5
-0.078	6.571e-6	1.286e-5
-0.079	6.530e-6	1.299e-5
-0.080	6.488e-6	1.312e-5
-0.081	6.446e-6	1.325e-5
-0.082	6.404e-6	1.338e-5
-0.083	6.361e-6	1.351e-5
-0.084	6.318e-6	1.363e-5
-0.085	6.274e-6	1.376e-5
-0.086	6.230e-6	1.388e-5
-0.087	6.185e-6	1.401e-5
-0.088	6.141e-6	1.413e-5
-0.089	6.096e-6	1.425e-5
-0.090	6.051e-6	1.437e-5
-0.091	6.006e-6	1.449e-5
-0.092	5.961e-6	1.461e-5
-0.093	5.916e-6	1.473e-5
-0.094	5.871e-6	1.485e-5
-0.095	5.826e-6	1.497e-5
-0.096	5.781e-6	1.508e-5
-0.097	5.736e-6	1.520e-5
-0.098	5.692e-6	1.531e-5
-0.099	5.648e-6	1.542e-5
-0.100	5.604e-6	1.554e-5
-0.101	5.560e-6	1.565e-5
-0.102	5.517e-6	1.576e-5
-0.103	5.474e-6	1.587e-5
-0.104	5.432e-6	1.597e-5
-0.105	5.392e-6	1.608e-5
-0.106	5.352e-6	1.619e-5
-0.107	5.313e-6	1.630e-5
-0.108	5.275e-6	1.640e-5
-0.109	5.237e-6	1.651e-5
-0.110	5.201e-6	1.661e-5
-0.111	5.166e-6	1.671e-5
-0.112	5.132e-6	1.682e-5
-0.113	5.099e-6	1.692e-5
-0.114	5.066e-6	1.702e-5
-0.115	5.035e-6	1.712e-5
-0.116	5.004e-6	1.722e-5
-0.117	4.974e-6	1.732e-5
-0.118	4.945e-6	1.742e-5
-0.119	4.917e-6	1.752e-5
-0.120	4.890e-6	1.761e-5
-0.121	4.863e-6	1.771e-5
-0.122	4.838e-6	1.781e-5
-0.123	4.812e-6	1.791e-5
-0.124	4.788e-6	1.800e-5
-0.125	4.763e-6	1.810e-5
-0.126	4.740e-6	1.819e-5
-0.127	4.716e-6	1.829e-5
-0.128	4.693e-6	1.838e-5
-0.129	4.670e-6	1.847e-5
-0.130	4.648e-6	1.857e-5
-0.131	4.626e-6	1.866e-5
-0.132	4.605e-6	1.875e-5
-0.133	4.583e-6	1.884e-5
-0.134	4.561e-6	1.893e-5
-0.135	4.540e-6	1.902e-5
-0.136	4.519e-6	1.911e-5
-0.137	4.498e-6	1.920e-5
-0.138	4.476e-6	1.929e-5
-0.139	4.455e-6	1.938e-5
-0.140	4.434e-6	1.947e-5
-0.141	4.412e-6	1.956e-5
-0.142	4.391e-6	1.965e-5
-0.143	4.369e-6	1.973e-5
-0.144	4.347e-6	1.982e-5
-0.145	4.325e-6	1.991e-5
-0.146	4.303e-6	1.999e-5
-0.147	4.280e-6	2.008e-5
-0.148	4.258e-6	2.017e-5
-0.149	4.235e-6	2.025e-5
-0.150	4.211e-6	2.033e-5
-0.151	4.188e-6	2.042e-5
-0.152	4.164e-6	2.050e-5
-0.153	4.140e-6	2.058e-5
-0.154	4.116e-6	2.067e-5
-0.155	4.091e-6	2.075e-5
-0.156	4.067e-6	2.083e-5
-0.157	4.041e-6	2.091e-5
-0.158	4.016e-6	2.099e-5
-0.159	3.990e-6	2.107e-5
-0.160	3.963e-6	2.115e-5
-0.161	3.936e-6	2.123e-5
-0.162	3.909e-6	2.131e-5
-0.163	3.881e-6	2.138e-5
-0.164	3.853e-6	2.146e-5
-0.165	3.824e-6	2.154e-5
-0.166	3.795e-6	2.161e-5
-0.167	3.766e-6	2.169e-5
-0.168	3.736e-6	2.176e-5
-0.169	3.706e-6	2.184e-5
-0.170	3.675e-6	2.191e-5
-0.171	3.644e-6	2.198e-5
-0.172	3.612e-6	2.206e-5
-0.173	3.580e-6	2.213e-5
-0.174	3.547e-6	2.220e-5
-0.175	3.513e-6	2.227e-5
-0.176	3.480e-6	2.234e-5
-0.177	3.445e-6	2.241e-5
-0.178	3.410e-6	2.248e-5
-0.179	3.374e-6	2.254e-5
-0.180	3.337e-6	2.261e-5
-0.181	3.300e-6	2.268e-5
-0.182	3.262e-6	2.274e-5
-0.183	3.223e-6	2.281e-5
-0.184	3.184e-6	2.287e-5
-0.185	3.143e-6	2.293e-5
-0.186	3.102e-6	2.299e-5
-0.187	3.059e-6	2.306e-5
-0.188	3.017e-6	2.312e-5
-0.189	2.973e-6	2.318e-5
-0.190	2.928e-6	2.323e-5
-0.191	2.883e-6	2.329e-5
-0.192	2.837e-6	2.335e-5
-0.193	2.789e-6	2.340e-5
-0.194	2.741e-6	2.346e-5
-0.195	2.692e-6	2.351e-5
-0.196	2.641e-6	2.357e-5
-0.197	2.590e-6	2.362e-5
-0.198	2.537e-6	2.367e-5
-0.199	2.483e-6	2.372e-5
-0.200	2.428e-6	2.377e-5
-0.201	2.371e-6	2.381e-5
-0.202	2.313e-6	2.386e-5
-0.203	2.254e-6	2.390e-5
-0.204	2.194e-6	2.395e-5
-0.205	2.133e-6	2.399e-5
-0.206	2.070e-6	2.403e-5
-0.207	2.006e-6	2.407e-5
-0.208	1.941e-6	2.411e-5
-0.209	1.874e-6	2.415e-5
-0.210	1.805e-6	2.419e-5
-0.211	1.734e-6	2.422e-5
-0.212	1.661e-6	2.425e-5
-0.213	1.587e-6	2.429e-5
-0.214	1.511e-6	2.432e-5
-0.215	1.434e-6	2.434e-5
-0.216	1.354e-6	2.437e-5
-0.217	1.273e-6	2.440e-5
-0.218	1.190e-6	2.442e-5
-0.219	1.105e-6	2.444e-5
-0.220	1.018e-6	2.446e-5
-0.221	9.290e-7	2.448e-5
-0.222	8.377e-7	2.450e-5
-0.223	7.441e-7	2.451e-5
-0.224	6.484e-7	2.453e-5
-0.225	5.506e-7	2.454e-5
-0.226	4.506e-7	2.455e-5
-0.227	3.484e-7	2.455e-5
-0.228	2.437e-7	2.456e-5
-0.229	1.365e-7	2.456e-5
-0.230	2.670e-8	2.456e-5
-0.231	-8.572e-8	2.456e-5
-0.232	-2.008e-7	2.456e-5
-0.233	-3.186e-7	2.455e-5
-0.234	-4.392e-7	2.454e-5
-0.235	-5.628e-7	2.453e-5
-0.236	-6.894e-7	2.452e-5
-0.237	-8.191e-7	2.450e-5
-0.238	-9.517e-7	2.448e-5
-0.239	-1.087e-6	2.446e-5
-0.240	-1.226e-6	2.443e-5
-0.241	-1.368e-6	2.441e-5
-0.242	-1.514e-6	2.438e-5
-0.243	-1.664e-6	2.434e-5
-0.244	-1.818e-6	2.431e-5
-0.245	-1.975e-6	2.427e-5
-0.246	-2.136e-6	2.422e-5
-0.247	-2.301e-6	2.418e-5
-0.248	-2.470e-6	2.413e-5
-0.249	-2.644e-6	2.408e-5
-0.250	-2.822e-6	2.402e-5
-0.251	-3.005e-6	2.396e-5
-0.252	-3.193e-6	2.390e-5
-0.253	-3.387e-6	2.383e-5
-0.254	-3.585e-6	2.376e-5
-0.255	-3.789e-6	2.368e-5
-0.256	-3.999e-6	2.360e-5
-0.257	-4.213e-6	2.352e-5
-0.258	-4.433e-6	2.343e-5
-0.259	-4.660e-6	2.333e-5
-0.260	-4.894e-6	2.324e-5
-0.261	-5.135e-6	2.313e-5
-0.262	-5.383e-6	2.303e-5
-0.263	-5.639e-6	2.291e-5
-0.264	-5.902e-6	2.279e-5
-0.265	-6.172e-6	2.267e-5
-0.266	-6.450e-6	2.254e-5
-0.267	-6.738e-6	2.241e-5
-0.268	-7.034e-6	2.227e-5
-0.269	-7.340e-6	2.212e-5
-0.270	-7.655e-6	2.197e-5
-0.271	-7.980e-6	2.181e-5
-0.272	-8.316e-6	2.164e-5
-0.273	-8.662e-6	2.147e-5
-0.274	-9.020e-6	2.129e-5
-0.275	-9.391e-6	2.110e-5
-0.276	-9.773e-6	2.090e-5
-0.277	-1.017e-5	2.070e-5
-0.278	-1.058e-5	2.049e-5
-0.279	-1.100e-5	2.027e-5
-0.280	-1.143e-5	2.004e-5
-0.281	-1.188e-5	1.980e-5
-0.282	-1.235e-5	1.956e-5
-0.283	-1.283e-5	1.930e-5
-0.284	-1.333e-5	1.903e-5
-0.285	-1.384e-5	1.876e-5
-0.286	-1.437e-5	1.847e-5
-0.287	-1.492e-5	1.817e-5
-0.288	-1.549e-5	1.786e-5
-0.289	-1.607e-5	1.754e-5
-0.290	-1.668e-5	1.721e-5
-0.291	-1.730e-5	1.686e-5
-0.292	-1.794e-5	1.650e-5
-0.293	-1.860e-5	1.613e-5
-0.294	-1.929e-5	1.574e-5
-0.295	-1.999e-5	1.534e-5
-0.296	-2.071e-5	1.493e-5
-0.297	-2.145e-5	1.450e-5
-0.298	-2.221e-5	1.406e-5
-0.299	-2.300e-5	1.360e-5
-0.300	-2.380e-5	1.312e-5
-0.301	-2.462e-5	1.263e-5
-0.302	-2.547e-5	1.212e-5
-0.303	-2.633e-5	1.159e-5
-0.304	-2.721e-5	1.105e-5
-0.305	-2.810e-5	1.049e-5
-0.306	-2.902e-5	9.905e-6
-0.307	-2.996e-5	9.306e-6
-0.308	-3.091e-5	8.688e-6
-0.309	-3.188e-5	8.050e-6
-0.310	-3.285e-5	7.393e-6
-0.311	-3.384e-5	6.716e-6
-0.312	-3.484e-5	6.019e-6
-0.313	-3.586e-5	5.302e-6
-0.314	-3.688e-5	4.564e-6
-0.315	-3.792e-5	3.806e-6
-0.316	-3.896e-5	3.027e-6
-0.317	-4.002e-5	2.227e-6
-0.318	-4.108e-5	1.405e-6
-0.319	-4.214e-5	5.622e-7
-0.320	-4.321e-5	-3.020e-7
-0.321	-4.428e-5	-1.188e-6
-0.322	-4.535e-5	-2.095e-6
-0.323	-4.643e-5	-3.023e-6
-0.324	-4.750e-5	-3.973e-6
-0.325	-4.858e-5	-4.945e-6
-0.326	-4.966e-5	-5.938e-6
-0.327	-5.073e-5	-6.953e-6
-0.328	-5.180e-5	-7.989e-6
-0.329	-5.287e-5	-9.046e-6
-0.330	-5.392e-5	-1.012e-5
-0.331	-5.497e-5	-1.122e-5
-0.332	-5.602e-5	-1.234e-5
-0.333	-5.706e-5	-1.349e-5
-0.334	-5.810e-5	-1.465e-5
-0.335	-5.912e-5	-1.583e-5
-0.336	-6.013e-5	-1.703e-5
-0.337	-6.112e-5	-1.825e-5
-0.338	-6.211e-5	-1.950e-5
-0.339	-6.308e-5	-2.076e-5
-0.340	-6.404e-5	-2.204e-5
-0.341	-6.497e-5	-2.334e-5
-0.342	-6.589e-5	-2.466e-5
-0.343	-6.679e-5	-2.599e-5
-0.344	-6.767e-5	-2.735e-5
-0.345	-6.854e-5	-2.872e-5
-0.346	-6.938e-5	-3.010e-5
-0.347	-7.019e-5	-3.151e-5
-0.348	-7.098e-5	-3.293e-5
-0.349	-7.175e-5	-3.436e-5
-0.350	-7.249e-5	-3.581e-5
-0.351	-7.321e-5	-3.728e-5
-0.352	-7.390e-5	-3.875e-5
-0.353	-7.457e-5	-4.025e-5
-0.354	-7.520e-5	-4.175e-5
-0.355	-7.581e-5	-4.327e-5
-0.356	-7.638e-5	-4.479e-5
-0.357	-7.693e-5	-4.633e-5
-0.358	-7.744e-5	-4.788e-5
-0.359	-7.792e-5	-4.944e-5
-0.360	-7.837e-5	-5.101e-5
-0.361	-7.878e-5	-5.258e-5
-0.362	-7.916e-5	-5.417e-5
-0.363	-7.951e-5	-5.576e-5
-0.364	-7.982e-5	-5.735e-5
-0.365	-8.011e-5	-5.895e-5
-0.366	-8.036e-5	-6.056e-5
-0.367	-8.058e-5	-6.217e-5
-0.368	-8.076e-5	-6.379e-5
-0.369	-8.092e-5	-6.541e-5
-0.370	-8.104e-5	-6.703e-5
-0.371	-8.113e-5	-6.865e-5
-0.372	-8.118e-5	-7.027e-5
-0.373	-8.121e-5	-7.190e-5
-0.374	-8.121e-5	-7.352e-5
-0.375	-8.118e-5	-7.515e-5
-0.376	-8.113e-5	-7.677e-5
-0.377	-8.105e-5	-7.839e-5
-0.378	-8.094e-5	-8.001e-5
-0.379	-8.081e-5	-8.162e-5
-0.380	-8.065e-5	-8.324e-5
-0.381	-8.047e-5	-8.485e-5
-0.382	-8.027e-5	-8.645e-5
-0.383	-8.005e-5	-8.805e-5
-0.384	-7.981e-5	-8.965e-5
-0.385	-7.955e-5	-9.124e-5
-0.386	-7.927e-5	-9.283e-5
-0.387	-7.897e-5	-9.441e-5
-0.388	-7.866e-5	-9.598e-5
-0.389	-7.834e-5	-9.755e-5
-0.390	-7.801e-5	-9.911e-5
-0.391	-7.766e-5	-1.007e-4
-0.392	-7.730e-5	-1.022e-4
-0.393	-7.694e-5	-1.037e-4
-0.394	-7.656e-5	-1.053e-4
-0.395	-7.617e-5	-1.068e-4
-0.396	-7.578e-5	-1.083e-4
-0.397	-7.538e-5	-1.098e-4
-0.398	-7.497e-5	-1.113e-4
-0.399	-7.455e-5	-1.128e-4
-0.400	-7.414e-5	-1.143e-4
-0.401	-7.371e-5	-1.158e-4
-0.402	-7.329e-5	-1.172e-4
-0.403	-7.286e-5	-1.187e-4
-0.404	-7.244e-5	-1.201e-4
-0.405	-7.200e-5	-1.216e-4
-0.406	-7.157e-5	-1.230e-4
-0.407	-7.114e-5	-1.244e-4
-0.408	-7.071e-5	-1.258e-4
-0.409	-7.028e-5	-1.273e-4
-0.410	-6.985e-5	-1.287e-4
-0.411	-6.942e-5	-1.300e-4
-0.412	-6.899e-5	-1.314e-4
-0.413	-6.856e-5	-1.328e-4
-0.414	-6.814e-5	-1.342e-4
-0.415	-6.771e-5	-1.355e-4
-0.416	-6.730e-5	-1.369e-4
-0.417	-6.688e-5	-1.382e-4
-0.418	-6.647e-5	-1.395e-4
-0.419	-6.605e-5	-1.408e-4
-0.420	-6.564e-5	-1.422e-4
-0.421	-6.524e-5	-1.435e-4
-0.422	-6.484e-5	-1.448e-4
-0.423	-6.444e-5	-1.460e-4
-0.424	-6.405e-5	-1.473e-4
-0.425	-6.366e-5	-1.486e-4
-0.426	-6.327e-5	-1.499e-4
-0.427	-6.289e-5	-1.511e-4
-0.428	-6.251e-5	-1.524e-4
-0.429	-6.214e-5	-1.536e-4
-0.430	-6.177e-5	-1.549e-4
-0.431	-6.140e-5	-1.561e-4
-0.432	-6.104e-5	-1.573e-4
-0.433	-6.068e-5	-1.585e-4
-0.434	-6.033e-5	-1.597e-4
-0.435	-5.998e-5	-1.609e-4
-0.436	-5.964e-5	-1.621e-4
-0.437	-5.930e-5	-1.633e-4
-0.438	-5.896e-5	-1.645e-4
-0.439	-5.863e-5	-1.657e-4
-0.440	-5.830e-5	-1.668e-4
-0.441	-5.797e-5	-1.680e-4
-0.442	-5.765e-5	-1.691e-4
-0.443	-5.734e-5	-1.703e-4
-0.444	-5.703e-5	-1.714e-4
-0.445	-5.672e-5	-1.726e-4
-0.446	-5.641e-5	-1.737e-4
-0.447	-5.612e-5	-1.748e-4
-0.448	-5.582e-5	-1.759e-4
-0.449	-5.553e-5	-1.770e-4
-0.450	-5.524e-5	-1.781e-4
-0.451	-5.496e-5	-1.792e-4
-0.452	-5.467e-5	-1.803e-4
-0.453	-5.440e-5	-1.814e-4
-0.454	-5.412e-5	-1.825e-4
-0.455	-5.385e-5	-1.836e-4
-0.456	-5.359e-5	-1.846e-4
-0.457	-5.333e-5	-1.857e-4
-0.458	-5.307e-5	-1.868e-4
-0.459	-5.281e-5	-1.878e-4
-0.460	-5.256e-5	-1.889e-4
-0.461	-5.231e-5	-1.899e-4
-0.462	-5.206e-5	-1.910e-4
-0.463	-5.182e-5	-1.920e-4
-0.464	-5.158e-5	-1.930e-4
-0.465	-5.135e-5	-1.941e-4
-0.466	-5.111e-5	-1.951e-4
-0.467	-5.088e-5	-1.961e-4
-0.468	-5.066e-5	-1.971e-4
-0.469	-5.043e-5	-1.981e-4
-0.470	-5.021e-5	-1.991e-4
-0.471	-4.999e-5	-2.001e-4
-0.472	-4.978e-5	-2.011e-4
-0.473	-4.957e-5	-2.021e-4
-0.474	-4.936e-5	-2.031e-4
-0.475	-4.915e-5	-2.041e-4
-0.476	-4.895e-5	-2.051e-4
-0.477	-4.874e-5	-2.060e-4
-0.478	-4.855e-5	-2.070e-4
-0.479	-4.835e-5	-2.080e-4
-0.480	-4.816e-5	-2.089e-4
-0.481	-4.796e-5	-2.099e-4
-0.482	-4.777e-5	-2.109e-4
-0.483	-4.759e-5	-2.118e-4
-0.484	-4.740e-5	-2.128e-4
-0.485	-4.722e-5	-2.137e-4
-0.486	-4.704e-5	-2.146e-4
-0.487	-4.687e-5	-2.156e-4
-0.488	-4.669e-5	-2.165e-4
-0.489	-4.652e-5	-2.174e-4
-0.490	-4.635e-5	-2.184e-4
-0.491	-4.618e-5	-2.193e-4
-0.492	-4.601e-5	-2.202e-4
-0.493	-4.584e-5	-2.211e-4
-0.494	-4.568e-5	-2.220e-4
-0.495	-4.552e-5	-2.230e-4
-0.496	-4.536e-5	-2.239e-4
-0.497	-4.521e-5	-2.248e-4
-0.498	-4.505e-5	-2.257e-4
-0.499	-4.490e-5	-2.266e-4
-0.500	-4.475e-5	-2.275e-4
-0.501	-4.460e-5	-2.284e-4
-0.502	-4.445e-5	-2.292e-4
-0.503	-4.430e-5	-2.301e-4
-0.504	-4.416e-5	-2.310e-4
-0.505	-4.402e-5	-2.319e-4
-0.506	-4.387e-5	-2.328e-4
-0.507	-4.374e-5	-2.336e-4
-0.508	-4.360e-5	-2.345e-4
-0.509	-4.346e-5	-2.354e-4
-0.510	-4.333e-5	-2.362e-4
-0.511	-4.319e-5	-2.371e-4
-0.512	-4.306e-5	-2.380e-4
-0.513	-4.293e-5	-2.388e-4
-0.514	-4.280e-5	-2.397e-4
-0.515	-4.267e-5	-2.405e-4
-0.516	-4.255e-5	-2.414e-4
-0.517	-4.242e-5	-2.422e-4
-0.518	-4.230e-5	-2.431e-4
-0.519	-4.218e-5	-2.439e-4
-0.520	-4.206e-5	-2.448e-4
-0.521	-4.194e-5	-2.456e-4
-0.522	-4.182e-5	-2.464e-4
-0.523	-4.170e-5	-2.473e-4
-0.524	-4.159e-5	-2.481e-4
-0.525	-4.147e-5	-2.489e-4
-0.526	-4.136e-5	-2.498e-4
-0.527	-4.125e-5	-2.506e-4
-0.528	-4.114e-5	-2.514e-4
-0.529	-4.103e-5	-2.522e-4
-0.530	-4.092e-5	-2.531e-4
-0.531	-4.081e-5	-2.539e-4
-0.532	-4.070e-5	-2.547e-4
-0.533	-4.060e-5	-2.555e-4
-0.534	-4.050e-5	-2.563e-4
-0.535	-4.039e-5	-2.571e-4
-0.536	-4.029e-5	-2.579e-4
-0.537	-4.019e-5	-2.587e-4
-0.538	-4.009e-5	-2.595e-4
-0.539	-3.999e-5	-2.603e-4
-0.540	-3.989e-5	-2.611e-4
-0.541	-3.979e-5	-2.619e-4
-0.542	-3.970e-5	-2.627e-4
-0.543	-3.960e-5	-2.635e-4
-0.544	-3.951e-5	-2.643e-4
-0.545	-3.941e-5	-2.651e-4
-0.546	-3.932e-5	-2.659e-4
-0.547	-3.923e-5	-2.667e-4
-0.548	-3.914e-5	-2.674e-4
-0.549	-3.905e-5	-2.682e-4
-0.550	-3.896e-5	-2.690e-4
-0.551	-3.887e-5	-2.698e-4
-0.552	-3.878e-5	-2.706e-4
-0.553	-3.869e-5	-2.713e-4
-0.554	-3.861e-5	-2.721e-4
-0.555	-3.852e-5	-2.729e-4
-0.556	-3.844e-5	-2.736e-4
-0.557	-3.835e-5	-2.744e-4
-0.558	-3.827e-5	-2.752e-4
-0.559	-3.819e-5	-2.759e-4
-0.560	-3.811e-5	-2.767e-4
-0.561	-3.802e-5	-2.775e-4
-0.562	-3.794e-5	-2.782e-4
-0.563	-3.786e-5	-2.790e-4
-0.564	-3.779e-5	-2.797e-4
-0.565	-3.771e-5	-2.805e-4
-0.566	-3.763e-5	-2.812e-4
-0.567	-3.755e-5	-2.820e-4
-0.568	-3.748e-5	-2.827e-4
-0.569	-3.740e-5	-2.835e-4
-0.570	-3.733e-5	-2.842e-4
-0.571	-3.725e-5	-2.850e-4
-0.572	-3.718e-5	-2.857e-4
-0.573	-3.710e-5	-2.865e-4
-0.574	-3.703e-5	-2.872e-4
-0.575	-3.696e-5	-2.879e-4
-0.576	-3.689e-5	-2.887e-4
-0.577	-3.682e-5	-2.894e-4
-0.578	-3.675e-5	-2.901e-4
-0.579	-3.668e-5	-2.909e-4
-0.580	-3.661e-5	-2.916e-4
-0.581	-3.654e-5	-2.923e-4
-0.582	-3.647e-5	-2.931e-4
-0.583	-3.640e-5	-2.938e-4
-0.584	-3.634e-5	-2.945e-4
-0.585	-3.627e-5	-2.953e-4
-0.586	-3.621e-5	-2.960e-4
-0.587	-3.614e-5	-2.967e-4
-0.588	-3.607e-5	-2.974e-4
-0.589	-3.601e-5	-2.981e-4
-0.590	-3.595e-5	-2.989e-4
-0.591	-3.588e-5	-2.996e-4
-0.592	-3.582e-5	-3.003e-4
-0.593	-3.576e-5	-3.010e-4
-0.594	-3.570e-5	-3.017e-4
-0.595	-3.564e-5	-3.024e-4
-0.596	-3.557e-5	-3.032e-4
-0.597	-3.551e-5	-3.039e-4
-0.598	-3.545e-5	-3.046e-4
-0.599	-3.539e-5	-3.053e-4
-0.600	-3.527e-5	-7.055e-7
-0.599	-3.515e-5	-1.408e-6
-0.598	-3.503e-5	-2.109e-6
-0.597	-3.493e-5	-2.808e-6
-0.596	-3.485e-5	-3.505e-6
-0.595	-3.477e-5	-4.200e-6
-0.594	-3.470e-5	-4.894e-6
-0.593	-3.463e-5	-5.587e-6
-0.592	-3.456e-5	-6.278e-6
-0.591	-3.449e-5	-6.968e-6
-0.590	-3.442e-5	-7.656e-6
-0.589	-3.435e-5	-8.343e-6
-0.588	-3.428e-5	-9.029e-6
-0.587	-3.422e-5	-9.713e-6
-0.586	-3.415e-5	-1.040e-5
-0.585	-3.409e-5	-1.108e-5
-0.584	-3.403e-5	-1.176e-5
-0.583	-3.396e-5	-1.244e-5
-0.582	-3.390e-5	-1.312e-5
-0.581	-3.384e-5	-1.379e-5
-0.580	-3.378e-5	-1.447e-5
-0.579	-3.372e-5	-1.514e-5
-0.578	-3.366e-5	-1.582e-5
-0.577	-3.360e-5	-1.649e-5
-0.576	-3.354e-5	-1.716e-5
-0.575	-3.348e-5	-1.783e-5
-0.574	-3.342e-5	-1.850e-5
-0.573	-3.336e-5	-1.916e-5
-0.572	-3.331e-5	-1.983e-5
-0.571	-3.325e-5	-2.049e-5
-0.570	-3.319e-5	-2.116e-5
-0.569	-3.314e-5	-2.182e-5
-0.568	-3.308e-5	-2.248e-5
-0.567	-3.303e-5	-2.314e-5
-0.566	-3.297e-5	-2.380e-5
-0.565	-3.292e-5	-2.446e-5
-0.564	-3.286e-5	-2.512e-5
-0.563	-3.281e-5	-2.577e-5
-0.562	-3.276e-5	-2.643e-5
-0.561	-3.270e-5	-2.708e-5
-0.560	-3.265e-5	-2.774e-5
-0.559	-3.260e-5	-2.839e-5
-0.558	-3.255e-5	-2.904e-5
-0.557	-3.249e-5	-2.969e-5
-0.556	-3.244e-5	-3.034e-5
-0.555	-3.239e-5	-3.099e-5
-0.554	-3.234e-5	-3.163e-5
-0.553	-3.229e-5	-3.228e-5
-0.552	-3.224e-5	-3.292e-5
-0.551	-3.219e-5	-3.357e-5
-0.550	-3.214e-5	-3.421e-5
-0.549	-3.209e-5	-3.485e-5
-0.548	-3.204e-5	-3.549e-5
-0.547	-3.199e-5	-3.613e-5
-0.546	-3.194e-5	-3.677e-5
-0.545	-3.189e-5	-3.741e-5
-0.544	-3.184e-5	-3.805e-5
-0.543	-3.180e-5	-3.868e-5
-0.542	-3.175e-5	-3.932e-5
-0.541	-3.170e-5	-3.995e-5
-0.540	-3.165e-5	-4.058e-5
-0.539	-3.160e-5	-4.122e-5
-0.538	-3.156e-5	-4.185e-5
-0.537	-3.151e-5	-4.248e-5
-0.536	-3.146e-5	-4.311e-5
-0.535	-3.141e-5	-4.373e-5
-0.534	-3.137e-5	-4.436e-5
-0.533	-3.132e-5	-4.499e-5
-0.532	-3.127e-5	-4.561e-5
-0.531	-3.123e-5	-4.624e-5
-0.530	-3.118e-5	-4.686e-5
-0.529	-3.113e-5	-4.748e-5
-0.528	-3.109e-5	-4.811e-5
-0.527	-3.104e-5	-4.873e-5
-0.526	-3.100e-5	-4.935e-5
-0.525	-3.095e-5	-4.997e-5
-0.524	-3.090e-5	-5.058e-5
-0.523	-3.086e-5	-5.120e-5
-0.522	-3.081e-5	-5.182e-5
-0.521	-3.076e-5	-5.243e-5
-0.520	-3.072e-5	-5.305e-5
-0.519	-3.067e-5	-5.366e-5
-0.518	-3.063e-5	-5.427e-5
-0.517	-3.058e-5	-5.488e-5
-0.516	-3.053e-5	-5.550e-5
-0.515	-3.049e-5	-5.610e-5
-0.514	-3.044e-5	-5.671e-5
-0.513	-3.039e-5	-5.732e-5
-0.512	-3.035e-5	-5.793e-5
-0.511	-3.030e-5	-5.853e-5
-0.510	-3.025e-5	-5.914e-5
-0.509	-3.021e-5	-5.974e-5
-0.508	-3.016e-5	-6.035e-5
-0.507	-3.011e-5	-6.095e-5
-0.506	-3.006e-5	-6.155e-5
-0.505	-3.002e-5	-6.215e-5
-0.504	-2.997e-5	-6.275e-5
-0.503	-2.992e-5	-6.335e-5
-0.502	-2.987e-5	-6.395e-5
-0.501	-2.982e-5	-6.454e-5
-0.500	-2.977e-5	-6.514e-5
-0.499	-2.972e-5	-6.573e-5
-0.498	-2.967e-5	-6.633e-5
-0.497	-2.962e-5	-6.692e-5
-0.496	-2.957e-5	-6.751e-5
-0.495	-2.952e-5	-6.810e-5
-0.494	-2.947e-5	-6.869e-5
-0.493	-2.942e-5	-6.928e-5
-0.492	-2.937e-5	-6.987e-5
-0.491	-2.932e-5	-7.045e-5
-0.490	-2.926e-5	-7.104e-5
-0.489	-2.921e-5	-7.162e-5
-0.488	-2.916e-5	-7.220e-5
-0.487	-2.910e-5	-7.279e-5
-0.486	-2.905e-5	-7.337e-5
-0.485	-2.899e-5	-7.395e-5
-0.484	-2.893e-5	-7.453e-5
-0.483	-2.887e-5	-7.510e-5
-0.482	-2.882e-5	-7.568e-5
-0.481	-2.876e-5	-7.625e-5
-0.480	-2.870e-5	-7.683e-5
-0.479	-2.864e-5	-7.740e-5
-0.478	-2.857e-5	-7.797e-5
-0.477	-2.851e-5	-7.854e-5
-0.476	-2.845e-5	-7.911e-5
-0.475	-2.838e-5	-7.968e-5
-0.474	-2.832e-5	-8.025e-5
-0.473	-2.825e-5	-8.081e-5
-0.472	-2.818e-5	-8.137e-5
-0.471	-2.811e-5	-8.194e-5
-0.470	-2.804e-5	-8.250e-5
-0.469	-2.797e-5	-8.306e-5
-0.468	-2.789e-5	-8.361e-5
-0.467	-2.782e-5	-8.417e-5
-0.466	-2.774e-5	-8.473e-5
-0.465	-2.766e-5	-8.528e-5
-0.464	-2.758e-5	-8.583e-5
-0.463	-2.750e-5	-8.638e-5
-0.462	-2.742e-5	-8.693e-5
-0.461	-2.733e-5	-8.748e-5
-0.460	-2.724e-5	-8.802e-5
-0.459	-2.715e-5	-8.856e-5
-0.458	-2.706e-5	-8.911e-5
-0.457	-2.697e-5	-8.964e-5
-0.456	-2.687e-5	-9.018e-5
-0.455	-2.678e-5	-9.072e-5
-0.454	-2.667e-5	-9.125e-5
-0.453	-2.657e-5	-9.178e-5
-0.452	-2.647e-5	-9.231e-5
-0.451	-2.636e-5	-9.284e-5
-0.450	-2.625e-5	-9.336e-5
-0.449	-2.613e-5	-9.389e-5
-0.448	-2.602e-5	-9.441e-5
-0.447	-2.590e-5	-9.492e-5
-0.446	-2.577e-5	-9.544e-5
-0.445	-2.564e-5	-9.595e-5
-0.444	-2.551e-5	-9.646e-5
-0.443	-2.538e-5	-9.697e-5
-0.442	-2.524e-5	-9.748e-5
-0.441	-2.510e-5	-9.798e-5
-0.440	-2.495e-5	-9.848e-5
-0.439	-2.480e-5	-9.897e-5
-0.438	-2.465e-5	-9.947e-5
-0.437	-2.449e-5	-9.996e-5
-0.436	-2.433e-5	-1.004e-4
-0.435	-2.416e-5	-1.009e-4
-0.434	-2.398e-5	-1.014e-4
-0.433	-2.381e-5	-1.019e-4
-0.432	-2.362e-5	-1.024e-4
-0.431	-2.343e-5	-1.028e-4
-0.430	-2.324e-5	-1.033e-4
-0.429	-2.304e-5	-1.037e-4
-0.428	-2.283e-5	-1.042e-4
-0.427	-2.262e-5	-1.047e-4
-0.426	-2.240e-5	-1.051e-4
-0.425	-2.217e-5	-1.055e-4
-0.424	-2.194e-5	-1.060e-4
-0.423	-2.170e-5	-1.064e-4
-0.422	-2.145e-5	-1.068e-4
-0.421	-2.119e-5	-1.073e-4
-0.420	-2.093e-5	-1.077e-4
-0.419	-2.065e-5	-1.081e-4
-0.418	-2.037e-5	-1.085e-4
-0.417	-2.008e-5	-1.089e-4
-0.416	-1.978e-5	-1.093e-4
-0.415	-1.947e-5	-1.097e-4
-0.414	-1.916e-5	-1.101e-4
-0.413	-1.883e-5	-1.105e-4
-0.412	-1.849e-5	-1.108e-4
-0.411	-1.814e-5	-1.112e-4
-0.410	-1.778e-5	-1.115e-4
-0.409	-1.741e-5	-1.119e-4
-0.408	-1.703e-5	-1.122e-4
-0.407	-1.663e-5	-1.126e-4
-0.406	-1.623e-5	-1.129e-4
-0.405	-1.581e-5	-1.132e-4
-0.404	-1.538e-5	-1.135e-4
-0.403	-1.494e-5	-1.138e-4
-0.402	-1.448e-5	-1.141e-4
-0.401	-1.401e-5	-1.144e-4
-0.400	-1.352e-5	-1.147e-4
-0.399	-1.302e-5	-1.149e-4
-0.398	-1.251e-5	-1.152e-4
-0.397	-1.198e-5	-1.154e-4
-0.396	-1.144e-5	-1.156e-4
-0.395	-1.088e-5	-1.159e-4
-0.394	-1.031e-5	-1.161e-4
-0.393	-9.722e-6	-1.163e-4
-0.392	-9.118e-6	-1.164e-4
-0.391	-8.497e-6	-1.166e-4
-0.390	-7.860e-6	-1.168e-4
-0.389	-7.207e-6	-1.169e-4
-0.388	-6.540e-6	-1.170e-4
-0.387	-5.858e-6	-1.172e-4
-0.386	-5.158e-6	-1.173e-4
-0.385	-4.440e-6	-1.173e-4
-0.384	-3.702e-6	-1.174e-4
-0.383	-2.948e-6	-1.175e-4
-0.382	-2.180e-6	-1.175e-4
-0.381	-1.400e-6	-1.176e-4
-0.380	-6.054e-7	-1.176e-4
-0.379	2.053e-7	-1.176e-4
-0.378	1.033e-6	-1.175e-4
-0.377	1.876e-6	-1.175e-4
-0.376	2.732e-6	-1.174e-4
-0.375	3.600e-6	-1.174e-4
-0.374	4.479e-6	-1.173e-4
-0.373	5.371e-6	-1.172e-4
-0.372	6.276e-6	-1.171e-4
-0.371	7.191e-6	-1.169e-4
-0.370	8.117e-6	-1.167e-4
-0.369	9.050e-6	-1.166e-4
-0.368	9.992e-6	-1.164e-4
-0.367	1.094e-5	-1.161e-4
-0.366	1.190e-5	-1.159e-4
-0.365	1.286e-5	-1.157e-4
-0.364	1.382e-5	-1.154e-4
-0.363	1.479e-5	-1.151e-4
-0.362	1.576e-5	-1.148e-4
-0.361	1.672e-5	-1.144e-4
-0.360	1.769e-5	-1.141e-4
-0.359	1.866e-5	-1.137e-4
-0.358	1.962e-5	-1.133e-4
-0.357	2.058e-5	-1.129e-4
-0.356	2.154e-5	-1.125e-4
-0.355	2.248e-5	-1.120e-4
-0.354	2.342e-5	-1.116e-4
-0.353	2.435e-5	-1.111e-4
-0.352	2.527e-5	-1.106e-4
-0.351	2.618e-5	-1.100e-4
-0.350	2.707e-5	-1.095e-4
-0.349	2.795e-5	-1.089e-4
-0.348	2.881e-5	-1.084e-4
-0.347	2.965e-5	-1.078e-4
-0.346	3.048e-5	-1.072e-4
-0.345	3.129e-5	-1.065e-4
-0.344	3.209e-5	-1.059e-4
-0.343	3.286e-5	-1.052e-4
-0.342	3.361e-5	-1.046e-4
-0.341	3.433e-5	-1.039e-4
-0.340	3.504e-5	-1.032e-4
-0.339	3.573e-5	-1.025e-4
-0.338	3.639e-5	-1.017e-4
-0.337	3.702e-5	-1.010e-4
-0.336	3.763e-5	-1.002e-4
-0.335	3.822e-5	-9.947e-5
-0.334	3.878e-5	-9.870e-5
-0.333	3.932e-5	-9.791e-5
-0.332	3.983e-5	-9.711e-5
-0.331	4.032e-5	-9.631e-5
-0.330	4.078e-5	-9.549e-5
-0.329	4.122e-5	-9.467e-5
-0.328	4.163e-5	-9.383e-5
-0.327	4.201e-5	-9.299e-5
-0.326	4.238e-5	-9.215e-5
-0.325	4.271e-5	-9.129e-5
-0.324	4.302e-5	-9.043e-5
-0.323	4.331e-5	-8.956e-5
-0.322	4.357e-5	-8.869e-5
-0.321	4.381e-5	-8.782e-5
-0.320	4.403e-5	-8.694e-5
-0.319	4.423e-5	-8.605e-5
-0.318	4.441e-5	-8.516e-5
-0.317	4.457e-5	-8.427e-5
-0.316	4.471e-5	-8.338e-5
-0.315	4.482e-5	-8.248e-5
-0.314	4.492e-5	-8.158e-5
-0.313	4.500e-5	-8.068e-5
-0.312	4.506e-5	-7.978e-5
-0.311	4.510e-5	-7.888e-5
-0.310	4.513e-5	-7.798e-5
-0.309	4.514e-5	-7.707e-5
-0.308	4.515e-5	-7.617e-5
-0.307	4.514e-5	-7.527e-5
-0.306	4.511e-5	-7.437e-5
-0.305	4.507e-5	-7.347e-5
-0.304	4.501e-5	-7.257e-5
-0.303	4.494e-5	-7.167e-5
-0.302	4.486e-5	-7.077e-5
-0.301	4.477e-5	-6.987e-5
-0.300	4.467e-5	-6.898e-5
-0.299	4.456e-5	-6.809e-5
-0.298	4.444e-5	-6.720e-5
-0.297	4.432e-5	-6.631e-5
-0.296	4.419e-5	-6.543e-5
-0.295	4.405e-5	-6.455e-5
-0.294	4.390e-5	-6.367e-5
-0.293	4.375e-5	-6.280e-5
-0.292	4.360e-5	-6.192e-5
-0.291	4.344e-5	-6.106e-5
-0.290	4.327e-5	-6.019e-5
-0.289	4.310e-5	-5.933e-5
-0.288	4.293e-5	-5.847e-5
-0.287	4.275e-5	-5.761e-5
-0.286	4.258e-5	-5.676e-5
-0.285	4.239e-5	-5.591e-5
-0.284	4.221e-5	-5.507e-5
-0.283	4.202e-5	-5.423e-5
-0.282	4.184e-5	-5.339e-5
-0.281	4.165e-5	-5.256e-5
-0.280	4.147e-5	-5.173e-5
-0.279	4.128e-5	-5.091e-5
-0.278	4.109e-5	-5.008e-5
-0.277	4.090e-5	-4.927e-5
-0.276	4.071e-5	-4.845e-5
-0.275	4.052e-5	-4.764e-5
-0.274	4.033e-5	-4.683e-5
-0.273	4.014e-5	-4.603e-5
-0.272	3.995e-5	-4.523e-5
-0.271	3.976e-5	-4.444e-5
-0.270	3.958e-5	-4.365e-5
-0.269	3.939e-5	-4.286e-5
-0.268	3.920e-5	-4.207e-5
-0.267	3.902e-5	-4.129e-5
-0.266	3.884e-5	-4.052e-5
-0.265	3.865e-5	-3.974e-5
-0.264	3.847e-5	-3.897e-5
-0.263	3.829e-5	-3.821e-5
-0.262	3.811e-5	-3.745e-5
-0.261	3.794e-5	-3.669e-5
-0.260	3.776e-5	-3.593e-5
-0.259	3.758e-5	-3.518e-5
-0.258	3.741e-5	-3.443e-5
-0.257	3.723e-5	-3.369e-5
-0.256	3.706e-5	-3.295e-5
-0.255	3.689e-5	-3.221e-5
-0.254	3.672e-5	-3.147e-5
-0.253	3.655e-5	-3.074e-5
-0.252	3.638e-5	-3.002e-5
-0.251	3.621e-5	-2.929e-5
-0.250	3.605e-5	-2.857e-5
-0.249	3.588e-5	-2.785e-5
-0.248	3.572e-5	-2.714e-5
-0.247	3.555e-5	-2.643e-5
-0.246	3.539e-5	-2.572e-5
-0.245	3.522e-5	-2.502e-5
-0.244	3.506e-5	-2.431e-5
-0.243	3.489e-5	-2.362e-5
-0.242	3.473e-5	-2.292e-5
-0.241	3.457e-5	-2.223e-5
-0.240	3.440e-5	-2.154e-5
-0.239	3.424e-5	-2.086e-5
-0.238	3.408e-5	-2.018e-5
-0.237	3.392e-5	-1.950e-5
-0.236	3.375e-5	-1.882e-5
-0.235	3.359e-5	-1.815e-5
-0.234	3.343e-5	-1.748e-5
-0.233	3.327e-5	-1.682e-5
-0.232	3.310e-5	-1.615e-5
-0.231	3.294e-5	-1.550e-5
-0.230	3.278e-5	-1.484e-5
-0.229	3.261e-5	-1.419e-5
-0.228	3.245e-5	-1.354e-5
-0.227	3.229e-5	-1.289e-5
-0.226	3.212e-5	-1.225e-5
-0.225	3.196e-5	-1.161e-5
-0.224	3.179e-5	-1.098e-5
-0.223	3.163e-5	-1.034e-5
-0.222	3.146e-5	-9.714e-6
-0.221	3.130e-5	-9.088e-6
-0.220	3.113e-5	-8.466e-6
-0.219	3.096e-5	-7.846e-6
-0.218	3.079e-5	-7.230e-6
-0.217	3.063e-5	-6.618e-6
-0.216	3.046e-5	-6.009e-6
-0.215	3.029e-5	-5.403e-6
-0.214	3.013e-5	-4.800e-6
-0.213	2.996e-5	-4.201e-6
-0.212	2.979e-5	-3.605e-6
-0.211	2.962e-5	-3.013e-6
-0.210	2.946e-5	-2.424e-6
-0.209	2.929e-5	-1.838e-6
-0.208	2.912e-5	-1.255e-6
-0.207	2.895e-5	-6.763e-7
-0.206	2.879e-5	-1.005e-7
-0.205	2.862e-5	4.719e-7
-0.204	2.845e-5	1.041e-6
-0.203	2.829e-5	1.607e-6
-0.202	2.812e-5	2.169e-6
-0.201	2.796e-5	2.728e-6
-0.200	2.779e-5	3.284e-6
-0.199	2.763e-5	3.837e-6
-0.198	2.746e-5	4.386e-6
-0.197	2.730e-5	4.932e-6
-0.196	2.714e-5	5.475e-6
-0.195	2.697e-5	6.014e-6
-0.194	2.681e-5	6.550e-6
-0.193	2.665e-5	7.083e-6
-0.192	2.649e-5	7.613e-6
-0.191	2.633e-5	8.140e-6
-0.190	2.617e-5	8.663e-6
-0.189	2.601e-5	9.183e-6
-0.188	2.585e-5	9.700e-6
-0.187	2.570e-5	1.021e-5
-0.186	2.554e-5	1.073e-5
-0.185	2.539e-5	1.123e-5
-0.184	2.523e-5	1.174e-5
-0.183	2.508e-5	1.224e-5
-0.182	2.493e-5	1.274e-5
-0.181	2.478e-5	1.323e-5
-0.180	2.463e-5	1.373e-5
-0.179	2.448e-5	1.422e-5
-0.178	2.433e-5	1.470e-5
-0.177	2.418e-5	1.519e-5
-0.176	2.404e-5	1.567e-5
-0.175	2.389e-5	1.614e-5
-0.174	2.375e-5	1.662e-5
-0.173	2.361e-5	1.709e-5
-0.172	2.346e-5	1.756e-5
-0.171	2.332e-5	1.803e-5
-0.170	2.318e-5	1.849e-5
-0.169	2.304e-5	1.895e-5
-0.168	2.291e-5	1.941e-5
-0.167	2.277e-5	1.987e-5
-0.166	2.263e-5	2.032e-5
-0.165	2.250e-5	2.077e-5
-0.164	2.237e-5	2.122e-5
-0.163	2.223e-5	2.166e-5
-0.162	2.210e-5	2.210e-5
-0.161	2.197e-5	2.254e-5
-0.160	2.185e-5	2.298e-5
-0.159	2.172e-5	2.341e-5
-0.158	2.159e-5	2.384e-5
-0.157	2.147e-5	2.427e-5
-0.156	2.134e-5	2.470e-5
-0.155	2.122e-5	2.513e-5
-0.154	2.110e-5	2.555e-5
-0.153	2.098e-5	2.597e-5
-0.152	2.086e-5	2.638e-5
-0.151	2.074e-5	2.680e-5
-0.150	2.063e-5	2.721e-5
-0.149	2.051e-5	2.762e-5
-0.148	2.040e-5	2.803e-5
-0.147	2.028e-5	2.844e-5
-0.146	2.017e-5	2.884e-5
-0.145	2.006e-5	2.924e-5
-0.144	1.995e-5	2.964e-5
-0.143	1.985e-5	3.004e-5
-0.142	1.974e-5	3.043e-5
-0.141	1.963e-5	3.082e-5
-0.140	1.953e-5	3.121e-5
-0.139	1.943e-5	3.160e-5
-0.138	1.933e-5	3.199e-5
-0.137	1.923e-5	3.237e-5
-0.136	1.913e-5	3.276e-5
-0.135	1.903e-5	3.314e-5
-0.134	1.893e-5	3.352e-5
-0.133	1.884e-5	3.389e-5
-0.132	1.875e-5	3.427e-5
-0.131	1.865e-5	3.464e-5
-0.130	1.856e-5	3.501e-5
-0.129	1.847e-5	3.538e-5
-0.128	1.839e-5	3.575e-5
-0.127	1.830e-5	3.611e-5
-0.126	1.822e-5	3.648e-5
-0.125	1.813e-5	3.684e-5
-0.124	1.805e-5	3.720e-5
-0.123	1.797e-5	3.756e-5
-0.122	1.789e-5	3.792e-5
-0.121	1.781e-5	3.828e-5
-0.120	1.773e-5	3.863e-5
-0.119	1.766e-5	3.898e-5
-0.118	1.758e-5	3.934e-5
-0.117	1.751e-5	3.969e-5
-0.116	1.744e-5	4.003e-5
-0.115	1.736e-5	4.038e-5
-0.114	1.729e-5	4.073e-5
-0.113	1.722e-5	4.107e-5
-0.112	1.715e-5	4.141e-5
-0.111	1.708e-5	4.176e-5
-0.110	1.702e-5	4.210e-5
-0.109	1.695e-5	4.244e-5
-0.108	1.688e-5	4.277e-5
-0.107	1.682e-5	4.311e-5
-0.106	1.675e-5	4.344e-5
-0.105	1.669e-5	4.378e-5
-0.104	1.662e-5	4.411e-5
-0.103	1.656e-5	4.444e-5
-0.102	1.649e-5	4.477e-5
-0.101	1.643e-5	4.510e-5
-0.100	1.636e-5	4.543e-5
-0.099	1.630e-5	4.575e-5
-0.098	1.623e-5	4.608e-5
-0.097	1.616e-5	4.640e-5
-0.096	1.610e-5	4.672e-5
-0.095	1.603e-5	4.704e-5
-0.094	1.597e-5	4.736e-5
-0.093	1.590e-5	4.768e-5
-0.092	1.583e-5	4.800e-5
-0.091	1.577e-5	4.831e-5
-0.090	1.570e-5	4.863e-5
-0.089	1.563e-5	4.894e-5
-0.088	1.556e-5	4.925e-5
-0.087	1.549e-5	4.956e-5
-0.086	1.543e-5	4.987e-5
-0.085	1.536e-5	5.018e-5
-0.084	1.529e-5	5.048e-5
-0.083	1.522e-5	5.079e-5
-0.082	1.515e-5	5.109e-5
-0.081	1.508e-5	5.139e-5
-0.080	1.501e-5	5.169e-5
-0.079	1.495e-5	5.199e-5
-0.078	1.488e-5	5.229e-5
-0.077	1.481e-5	5.258e-5
-0.076	1.474e-5	5.288e-5
-0.075	1.467e-5	5.317e-5
-0.074	1.461e-5	5.347e-5
-0.073	1.454e-5	5.376e-5
-0.072	1.447e-5	5.405e-5
-0.071	1.441e-5	5.433e-5
-0.070	1.434e-5	5.462e-5
-0.069	1.427e-5	5.491e-5
-0.068	1.421e-5	5.519e-5
-0.067	1.414e-5	5.547e-5
-0.066	1.408e-5	5.575e-5
-0.065	1.401e-5	5.603e-5
-0.064	1.395e-5	5.631e-5
-0.063	1.388e-5	5.659e-5
-0.062	1.382e-5	5.687e-5
-0.061	1.376e-5	5.714e-5
-0.060	1.370e-5	5.742e-5
-0.059	1.364e-5	5.769e-5
-0.058	1.357e-5	5.796e-5
-0.057	1.351e-5	5.823e-5
-0.056	1.345e-5	5.850e-5
-0.055	1.339e-5	5.877e-5
-0.054	1.333e-5	5.903e-5
-0.053	1.327e-5	5.930e-5
-0.052	1.322e-5	5.956e-5
-0.051	1.316e-5	5.983e-5
-0.050	1.310e-5	6.009e-5
-0.049	1.304e-5	6.035e-5
-0.048	1.299e-5	6.061e-5
-0.047	1.293e-5	6.087e-5
-0.046	1.288e-5	6.113e-5
-0.045	1.282e-5	6.138e-5
-0.044	1.277e-5	6.164e-5
-0.043	1.271e-5	6.189e-5
-0.042	1.266e-5	6.215e-5
-0.041	1.260e-5	6.240e-5
-0.040	1.255e-5	6.265e-5
-0.039	1.250e-5	6.290e-5
-0.038	1.245e-5	6.315e-5
-0.037	1.239e-5	6.340e-5
-0.036	1.234e-5	6.364e-5
-0.035	1.229e-5	6.389e-5
-0.034	1.224e-5	6.413e-5
-0.033	1.219e-5	6.438e-5
-0.032	1.214e-5	6.462e-5
-0.031	1.209e-5	6.486e-5
-0.030	1.204e-5	6.510e-5
-0.029	1.199e-5	6.534e-5
-0.028	1.194e-5	6.558e-5
-0.027	1.190e-5	6.582e-5
-0.026	1.185e-5	6.606e-5
-0.025	1.180e-5	6.629e-5
-0.024	1.175e-5	6.653e-5
-0.023	1.171e-5	6.676e-5
-0.022	1.166e-5	6.699e-5
-0.021	1.161e-5	6.723e-5
-0.020	1.157e-5	6.746e-5
-0.019	1.152e-5	6.769e-5
-0.018	1.148e-5	6.792e-5
-0.017	1.143e-5	6.815e-5
-0.016	1.139e-5	6.837e-5
-0.015	1.135e-5	6.860e-5
-0.014	1.130e-5	6.883e-5
-0.013	1.126e-5	6.905e-5
-0.012	1.122e-5	6.928e-5
-0.011	1.117e-5	6.950e-5
-0.010	1.113e-5	6.972e-5
-0.009	1.109e-5	6.995e-5
-0.008	1.105e-5	7.017e-5
-0.007	1.101e-5	7.039e-5
-0.006	1.096e-5	7.061e-5
-0.005	1.092e-5	7.082e-5
-0.004	1.088e-5	7.104e-5
-0.003	1.084e-5	7.126e-5
-0.002	1.080e-5	7.147e-5
-0.001	1.076e-5	7.169e-5
-0.000	1.059e-5	2.117e-7
-0.001	1.039e-5	4.196e-7
-0.002	1.023e-5	6.242e-7
-0.003	1.010e-5	8.262e-7
-0.004	1.001e-5	1.026e-6
-0.005	9.943e-6	1.225e-6
-0.006	9.882e-6	1.423e-6
-0.007	9.817e-6	1.619e-6
-0.008	9.756e-6	1.814e-6
-0.009	9.696e-6	2.008e-6
-0.010	9.639e-6	2.201e-6
-0.011	9.583e-6	2.393e-6
-0.012	9.528e-6	2.583e-6
-0.013	9.474e-6	2.773e-6
-0.014	9.421e-6	2.961e-6
-0.015	9.369e-6	3.149e-6
-0.016	9.318e-6	3.335e-6
-0.017	9.268e-6	3.520e-6
-0.018	9.219e-6	3.705e-6
-0.019	9.171e-6	3.888e-6
-0.020	9.123e-6	4.071e-6
-0.021	9.076e-6	4.252e-6
-0.022	9.029e-6	4.433e-6
-0.023	8.983e-6	4.612e-6
-0.024	8.937e-6	4.791e-6
-0.025	8.892e-6	4.969e-6
-0.026	8.847e-6	5.146e-6
-0.027	8.803e-6	5.322e-6
-0.028	8.760e-6	5.497e-6
-0.029	8.716e-6	5.671e-6
-0.030	8.673e-6	5.845e-6
-0.031	8.630e-6	6.017e-6
-0.032	8.587e-6	6.189e-6
-0.033	8.545e-6	6.360e-6
-0.034	8.503e-6	6.530e-6
-0.035	8.462e-6	6.699e-6
-0.036	8.421e-6	6.868e-6
-0.037	8.380e-6	7.035e-6
-0.038	8.339e-6	7.202e-6
-0.039	8.299e-6	7.368e-6
-0.040	8.259e-6	7.533e-6
-0.041	8.220e-6	7.698e-6
-0.042	8.180e-6	7.861e-6
-0.043	8.141e-6	8.024e-6
-0.044	8.102e-6	8.186e-6
-0.045	8.062e-6	8.347e-6
-0.046	8.023e-6	8.508e-6
-0.047	7.985e-6	8.668e-6
-0.048	7.946e-6	8.827e-6
-0.049	7.907e-6	8.985e-6
-0.050	7.869e-6	9.142e-6
-0.051	7.830e-6	9.299e-6
-0.052	7.791e-6	9.454e-6
-0.053	7.753e-6	9.610e-6
-0.054	7.715e-6	9.764e-6
-0.055	7.677e-6	9.917e-6
-0.056	7.639e-6	1.007e-5
-0.057	7.602e-6	1.022e-5
-0.058	7.564e-6	1.037e-5
-0.059	7.526e-6	1.052e-5
-0.060	7.487e-6	1.067e-5
-0.061	7.449e-6	1.082e-5
-0.062	7.411e-6	1.097e-5
-0.063	7.373e-6	1.112e-5
-0.064	7.335e-6	1.127e-5
-0.065	7.296e-6	1.141e-5
-0.066	7.258e-6	1.156e-5
-0.067	7.220e-6	1.170e-5
-0.068	7.181e-6	1.184e-5
-0.069	7.142e-6	1.199e-5
-0.070	7.102e-6	1.213e-5
-0.071	7.063e-6	1.227e-5
-0.072	7.023e-6	1.241e-5
-0.073	6.983e-6	1.255e-5
-0.074	6.943e-6	1.269e-5
-0.075	6.902e-6	1.283e-5
-0.076	6.861e-6	1.296e-5
-0.077	6.820e-6	1.310e-5
-0.078	6.779e-6	1.324e-5
-0.079	6.737e-6	1.337e-5
-0.080	6.696e-6	1.351e-5
-0.081	6.654e-6	1.364e-5
-0.082	6.611e-6	1.377e-5
-0.083	6.568e-6	1.390e-5
-0.084	6.525e-6	1.403e-5
-0.085	6.481e-6	1.416e-5
-0.086	6.437e-6	1.429e-5
-0.087	6.393e-6	1.442e-5
-0.088	6.349e-6	1.455e-5
-0.089	6.304e-6	1.467e-5
-0.090	6.258e-6	1.480e-5
-0.091	6.213e-6	1.492e-5
-0.092	6.168e-6	1.504e-5
-0.093	6.123e-6	1.517e-5
-0.094	6.078e-6	1.529e-5
-0.095	6.032e-6	1.541e-5
-0.096	5.987e-6	1.553e-5
-0.097	5.943e-6	1.565e-5
-0.098	5.898e-6	1.577e-5
-0.099	5.854e-6	1.588e-5
-0.100	5.810e-6	1.600e-5
-0.101	5.767e-6	1.611e-5
-0.102	5.724e-6	1.623e-5
-0.103	5.681e-6	1.634e-5
-0.104	5.640e-6	1.646e-5
-0.105	5.600e-6	1.657e-5
-0.106	5.560e-6	1.668e-5
-0.107	5.521e-6	1.679e-5
-0.108	5.482e-6	1.690e-5
-0.109	5.444e-6	1.701e-5
-0.110	5.407e-6	1.712e-5
-0.111	5.372e-6	1.722e-5
-0.112	5.337e-6	1.733e-5
-0.113	5.304e-6	1.744e-5
-0.114	5.271e-6	1.754e-5
-0.115	5.239e-6	1.765e-5
-0.116	5.208e-6	1.775e-5
-0.117	5.178e-6	1.785e-5
-0.118	5.148e-6	1.796e-5
-0.119	5.120e-6	1.806e-5
-0.120	5.092e-6	1.816e-5
-0.121	5.066e-6	1.826e-5
-0.122	5.039e-6	1.836e-5
-0.123	5.014e-6	1.846e-5
-0.124	4.988e-6	1.856e-5
-0.125	4.963e-6	1.866e-5
-0.126	4.938e-6	1.876e-5
-0.127	4.914e-6	1.886e-5
-0.128	4.891e-6	1.896e-5
-0.129	4.868e-6	1.905e-5
-0.130	4.845e-6	1.915e-5
-0.131	4.822e-6	1.925e-5
-0.132	4.799e-6	1.934e-5
-0.133	4.777e-6	1.944e-5
-0.134	4.754e-6	1.953e-5
-0.135	4.732e-6	1.963e-5
-0.136	4.710e-6	1.972e-5
-0.137	4.687e-6	1.982e-5
-0.138	4.665e-6	1.991e-5
-0.139	4.642e-6	2.000e-5
-0.140	4.620e-6	2.010e-5
-0.141	4.597e-6	2.019e-5
-0.142	4.575e-6	2.028e-5
-0.143	4.552e-6	2.037e-5
-0.144	4.529e-6	2.046e-5
-0.145	4.506e-6	2.055e-5
-0.146	4.483e-6	2.064e-5
-0.147	4.460e-6	2.073e-5
-0.148	4.436e-6	2.082e-5
-0.149	4.412e-6	2.091e-5
-0.150	4.388e-6	2.099e-5
-0.151	4.363e-6	2.108e-5
-0.152	4.339e-6	2.117e-5
-0.153	4.314e-6	2.125e-5
-0.154	4.288e-6	2.134e-5
-0.155	4.263e-6	2.143e-5
-0.156	4.237e-6	2.151e-5
-0.157	4.211e-6	2.159e-5
-0.158	4.184e-6	2.168e-5
-0.159	4.157e-6	2.176e-5
-0.160	4.129e-6	2.184e-5
-0.161	4.102e-6	2.193e-5
-0.162	4.074e-6	2.201e-5
-0.163	4.045e-6	2.209e-5
-0.164	4.016e-6	2.217e-5
-0.165	3.987e-6	2.225e-5
-0.166	3.957e-6	2.233e-5
-0.167	3.926e-6	2.241e-5
-0.168	3.895e-6	2.248e-5
-0.169	3.864e-6	2.256e-5
-0.170	3.832e-6	2.264e-5
-0.171	3.800e-6	2.271e-5
-0.172	3.767e-6	2.279e-5
-0.173	3.734e-6	2.286e-5
-0.174	3.700e-6	2.294e-5
-0.175	3.665e-6	2.301e-5
-0.176	3.630e-6	2.308e-5
-0.177	3.595e-6	2.316e-5
-0.178	3.558e-6	2.323e-5
-0.179	3.522e-6	2.330e-5
-0.180	3.485e-6	2.337e-5
-0.181	3.447e-6	2.344e-5
-0.182	3.408e-6	2.350e-5
-0.183	3.368e-6	2.357e-5
-0.184	3.327e-6	2.364e-5
-0.185	3.286e-6	2.370e-5
-0.186	3.244e-6	2.377e-5
-0.187	3.201e-6	2.383e-5
-0.188	3.157e-6	2.390e-5
-0.189	3.112e-6	2.396e-5
-0.190	3.067e-6	2.402e-5
-0.191	3.020e-6	2.408e-5
-0.192	2.973e-6	2.414e-5
-0.193	2.924e-6	2.420e-5
-0.194	2.875e-6	2.426e-5
-0.195	2.825e-6	2.431e-5
-0.196	2.773e-6	2.437e-5
-0.197	2.720e-6	2.442e-5
-0.198	2.666e-6	2.447e-5
-0.199	2.611e-6	2.453e-5
-0.200	2.555e-6	2.458e-5
-0.201	2.498e-6	2.463e-5
-0.202	2.440e-6	2.468e-5
-0.203	2.380e-6	2.472e-5
-0.204	2.318e-6	2.477e-5
-0.205	2.256e-6	2.482e-5
-0.206	2.191e-6	2.486e-5
-0.207	2.126e-6	2.490e-5
-0.208	2.059e-6	2.494e-5
-0.209	1.991e-6	2.498e-5
-0.210	1.921e-6	2.502e-5
-0.211	1.850e-6	2.506e-5
-0.212	1.777e-6	2.509e-5
-0.213	1.702e-6	2.513e-5
-0.214	1.625e-6	2.516e-5
-0.215	1.546e-6	2.519e-5
-0.216	1.465e-6	2.522e-5
-0.217	1.383e-6	2.525e-5
-0.218	1.298e-6	2.527e-5
-0.219	1.212e-6	2.530e-5
-0.220	1.124e-6	2.532e-5
-0.221	1.034e-6	2.534e-5
-0.222	9.412e-7	2.536e-5
-0.223	8.463e-7	2.538e-5
-0.224	7.491e-7	2.539e-5
-0.225	6.498e-7	2.541e-5
-0.226	5.485e-7	2.542e-5
-0.227	4.451e-7	2.543e-5
-0.228	3.394e-7	2.543e-5
-0.229	2.310e-7	2.544e-5
-0.230	1.198e-7	2.544e-5
-0.231	5.786e-9	2.544e-5
-0.232	-1.109e-7	2.544e-5
-0.233	-2.300e-7	2.543e-5
-0.234	-3.516e-7	2.543e-5
-0.235	-4.764e-7	2.542e-5
-0.236	-6.044e-7	2.540e-5
-0.237	-7.358e-7	2.539e-5
-0.238	-8.704e-7	2.537e-5
-0.239	-1.008e-6	2.535e-5
-0.240	-1.148e-6	2.533e-5
-0.241	-1.291e-6	2.530e-5
-0.242	-1.438e-6	2.527e-5
-0.243	-1.589e-6	2.524e-5
-0.244	-1.744e-6	2.521e-5
-0.245	-1.903e-6	2.517e-5
-0.246	-2.066e-6	2.513e-5
-0.247	-2.232e-6	2.508e-5
-0.248	-2.403e-6	2.504e-5
-0.249	-2.578e-6	2.498e-5
-0.250	-2.758e-6	2.493e-5
-0.251	-2.943e-6	2.487e-5
-0.252	-3.133e-6	2.481e-5
-0.253	-3.328e-6	2.474e-5
-0.254	-3.528e-6	2.467e-5
-0.255	-3.734e-6	2.460e-5
-0.256	-3.945e-6	2.452e-5
-0.257	-4.161e-6	2.443e-5
-0.258	-4.383e-6	2.435e-5
-0.259	-4.612e-6	2.425e-5
-0.260	-4.847e-6	2.416e-5
-0.261	-5.089e-6	2.405e-5
-0.262	-5.338e-6	2.395e-5
-0.263	-5.595e-6	2.384e-5
-0.264	-5.859e-6	2.372e-5
-0.265	-6.131e-6	2.360e-5
-0.266	-6.411e-6	2.347e-5
-0.267	-6.700e-6	2.333e-5
-0.268	-6.998e-6	2.319e-5
-0.269	-7.306e-6	2.305e-5
-0.270	-7.622e-6	2.290e-5
-0.271	-7.949e-6	2.274e-5
-0.272	-8.286e-6	2.257e-5
-0.273	-8.635e-6	2.240e-5
-0.274	-8.994e-6	2.222e-5
-0.275	-9.366e-6	2.203e-5
-0.276	-9.750e-6	2.184e-5
-0.277	-1.015e-5	2.163e-5
-0.278	-1.055e-5	2.142e-5
-0.279	-1.098e-5	2.120e-5
-0.280	-1.141e-5	2.097e-5
-0.281	-1.187e-5	2.074e-5
-0.282	-1.233e-5	2.049e-5
-0.283	-1.282e-5	2.023e-5
-0.284	-1.332e-5	1.997e-5
-0.285	-1.383e-5	1.969e-5
-0.286	-1.436e-5	1.940e-5
-0.287	-1.491e-5	1.911e-5
-0.288	-1.548e-5	1.880e-5
-0.289	-1.606e-5	1.847e-5
-0.290	-1.667e-5	1.814e-5
-0.291	-1.729e-5	1.780e-5
-0.292	-1.794e-5	1.744e-5
-0.293	-1.860e-5	1.706e-5
-0.294	-1.928e-5	1.668e-5
-0.295	-1.998e-5	1.628e-5
-0.296	-2.071e-5	1.587e-5
-0.297	-2.145e-5	1.544e-5
-0.298	-2.221e-5	1.499e-5
-0.299	-2.300e-5	1.453e-5
-0.300	-2.380e-5	1.406e-5
-0.301	-2.462e-5	1.356e-5
-0.302	-2.546e-5	1.305e-5
-0.303	-2.633e-5	1.253e-5
-0.304	-2.721e-5	1.198e-5
-0.305	-2.810e-5	1.142e-5
-0.306	-2.902e-5	1.084e-5
-0.307	-2.995e-5	1.024e-5
-0.308	-3.091e-5	9.624e-6
-0.309	-3.187e-5	8.987e-6
-0.310	-3.285e-5	8.330e-6
-0.311	-3.384e-5	7.653e-6
-0.312	-3.484e-5	6.956e-6
-0.313	-3.585e-5	6.239e-6
-0.314	-3.688e-5	5.502e-6
-0.315	-3.791e-5	4.744e-6
-0.316	-3.895e-5	3.965e-6
-0.317	-4.000e-5	3.165e-6
-0.318	-4.105e-5	2.344e-6
-0.319	-4.211e-5	1.501e-6
-0.320	-4.318e-5	6.376e-7
-0.321	-4.426e-5	-2.475e-7
-0.322	-4.533e-5	-1.154e-6
-0.323	-4.640e-5	-2.082e-6
-0.324	-4.747e-5	-3.032e-6
-0.325	-4.855e-5	-4.002e-6
-0.326	-4.962e-5	-4.995e-6
-0.327	-5.069e-5	-6.009e-6
-0.328	-5.176e-5	-7.044e-6
-0.329	-5.282e-5	-8.100e-6
-0.330	-5.388e-5	-9.178e-6
-0.331	-5.493e-5	-1.028e-5
-0.332	-5.597e-5	-1.140e-5
-0.333	-5.700e-5	-1.254e-5
-0.334	-5.803e-5	-1.370e-5
-0.335	-5.904e-5	-1.488e-5
-0.336	-6.004e-5	-1.608e-5
-0.337	-6.103e-5	-1.730e-5
-0.338	-6.201e-5	-1.854e-5
-0.339	-6.298e-5	-1.980e-5
-0.340	-6.393e-5	-2.108e-5
-0.341	-6.486e-5	-2.237e-5
-0.342	-6.578e-5	-2.369e-5
-0.343	-6.667e-5	-2.502e-5
-0.344	-6.755e-5	-2.637e-5
-0.345	-6.840e-5	-2.774e-5
-0.346	-6.924e-5	-2.913e-5
-0.347	-7.005e-5	-3.053e-5
-0.348	-7.083e-5	-3.194e-5
-0.349	-7.159e-5	-3.338e-5
-0.350	-7.233e-5	-3.482e-5
-0.351	-7.305e-5	-3.628e-5
-0.352	-7.374e-5	-3.776e-5
-0.353	-7.440e-5	-3.925e-5
-0.354	-7.503e-5	-4.075e-5
-0.355	-7.562e-5	-4.226e-5
-0.356	-7.619e-5	-4.378e-5
-0.357	-7.672e-5	-4.532e-5
-0.358	-7.723e-5	-4.686e-5
-0.359	-7.770e-5	-4.842e-5
-0.360	-7.815e-5	-4.998e-5
-0.361	-7.856e-5	-5.155e-5
-0.362	-7.893e-5	-5.313e-5
-0.363	-7.928e-5	-5.471e-5
-0.364	-7.960e-5	-5.631e-5
-0.365	-7.988e-5	-5.790e-5
-0.366	-8.012e-5	-5.951e-5
-0.367	-8.033e-5	-6.111e-5
-0.368	-8.051e-5	-6.272e-5
-0.369	-8.065e-5	-6.434e-5
-0.370	-8.077e-5	-6.595e-5
-0.371	-8.086e-5	-6.757e-5
-0.372	-8.092e-5	-6.919e-5
-0.373	-8.094e-5	-7.081e-5
-0.374	-8.094e-5	-7.242e-5
-0.375	-8.091e-5	-7.404e-5
-0.376	-8.085e-5	-7.566e-5
-0.377	-8.077e-5	-7.728e-5
-0.378	-8.066e-5	-7.889e-5
-0.379	-8.052e-5	-8.050e-5
-0.380	-8.037e-5	-8.211e-5
-0.381	-8.018e-5	-8.371e-5
-0.382	-7.998e-5	-8.531e-5
-0.383	-7.976e-5	-8.690e-5
-0.384	-7.952e-5	-8.850e-5
-0.385	-7.926e-5	-9.008e-5
-0.386	-7.898e-5	-9.166e-5
-0.387	-7.869e-5	-9.323e-5
-0.388	-7.838e-5	-9.480e-5
-0.389	-7.806e-5	-9.636e-5
-0.390	-7.773e-5	-9.792e-5
-0.391	-7.738e-5	-9.946e-5
-0.392	-7.702e-5	-1.010e-4
-0.393	-7.666e-5	-1.025e-4
-0.394	-7.628e-5	-1.041e-4
-0.395	-7.589e-5	-1.056e-4
-0.396	-7.550e-5	-1.071e-4
-0.397	-7.510e-5	-1.086e-4
-0.398	-7.469e-5	-1.101e-4
-0.399	-7.428e-5	-1.116e-4
-0.400	-7.387e-5	-1.131e-4
-0.401	-7.345e-5	-1.145e-4
-0.402	-7.303e-5	-1.160e-4
-0.403	-7.260e-5	-1.174e-4
-0.404	-7.218e-5	-1.189e-4
-0.405	-7.175e-5	-1.203e-4
-0.406	-7.132e-5	-1.217e-4
-0.407	-7.089e-5	-1.232e-4
-0.408	-7.046e-5	-1.246e-4
-0.409	-7.003e-5	-1.260e-4
-0.410	-6.960e-5	-1.274e-4
-0.411	-6.917e-5	-1.287e-4
-0.412	-6.875e-5	-1.301e-4
-0.413	-6.832e-5	-1.315e-4
-0.414	-6.790e-5	-1.328e-4
-0.415	-6.748e-5	-1.342e-4
-0.416	-6.706e-5	-1.355e-4
-0.417	-6.665e-5	-1.369e-4
-0.418	-6.623e-5	-1.382e-4
-0.419	-6.582e-5	-1.395e-4
-0.420	-6.541e-5	-1.408e-4
-0.421	-6.501e-5	-1.421e-4
-0.422	-6.461e-5	-1.434e-4
-0.423	-6.422e-5	-1.447e-4
-0.424	-6.383e-5	-1.460e-4
-0.425	-6.344e-5	-1.472e-4
-0.426	-6.305e-5	-1.485e-4
-0.427	-6.267e-5	-1.497e-4
-0.428	-6.230e-5	-1.510e-4
-0.429	-6.193e-5	-1.522e-4
-0.430	-6.156e-5	-1.535e-4
-0.431	-6.119e-5	-1.547e-4
-0.432	-6.083e-5	-1.559e-4
-0.433	-6.048e-5	-1.571e-4
-0.434	-6.013e-5	-1.583e-4
-0.435	-5.978e-5	-1.595e-4
-0.436	-5.944e-5	-1.607e-4
-0.437	-5.910e-5	-1.619e-4
-0.438	-5.876e-5	-1.631e-4
-0.439	-5.843e-5	-1.642e-4
-0.440	-5.810e-5	-1.654e-4
-0.441	-5.778e-5	-1.665e-4
-0.442	-5.746e-5	-1.677e-4
-0.443	-5.715e-5	-1.688e-4
-0.444	-5.684e-5	-1.700e-4
-0.445	-5.653e-5	-1.711e-4
-0.446	-5.623e-5	-1.722e-4
-0.447	-5.593e-5	-1.733e-4
-0.448	-5.564e-5	-1.745e-4
-0.449	-5.534e-5	-1.756e-4
-0.450	-5.506e-5	-1.767e-4
-0.451	-5.477e-5	-1.778e-4
-0.452	-5.450e-5	-1.789e-4
-0.453	-5.422e-5	-1.799e-4
-0.454	-5.395e-5	-1.810e-4
-0.455	-5.368e-5	-1.821e-4
-0.456	-5.341e-5	-1.832e-4
-0.457	-5.315e-5	-1.842e-4
-0.458	-5.290e-5	-1.853e-4
-0.459	-5.264e-5	-1.863e-4
-0.460	-5.239e-5	-1.874e-4
-0.461	-5.214e-5	-1.884e-4
-0.462	-5.190e-5	-1.895e-4
-0.463	-5.166e-5	-1.905e-4
-0.464	-5.142e-5	-1.915e-4
-0.465	-5.118e-5	-1.925e-4
-0.466	-5.095e-5	-1.936e-4
-0.467	-5.072e-5	-1.946e-4
-0.468	-5.050e-5	-1.956e-4
-0.469	-5.027e-5	-1.966e-4
-0.470	-5.005e-5	-1.976e-4
-0.471	-4.984e-5	-1.986e-4
-0.472	-4.962e-5	-1.996e-4
-0.473	-4.941e-5	-2.006e-4
-0.474	-4.920e-5	-2.016e-4
-0.475	-4.900e-5	-2.025e-4
-0.476	-4.879e-5	-2.035e-4
-0.477	-4.859e-5	-2.045e-4
-0.478	-4.839e-5	-2.055e-4
-0.479	-4.820e-5	-2.064e-4
-0.480	-4.801e-5	-2.074e-4
-0.481	-4.781e-5	-2.083e-4
-0.482	-4.763e-5	-2.093e-4
-0.483	-4.744e-5	-2.102e-4
-0.484	-4.726e-5	-2.112e-4
-0.485	-4.708e-5	-2.121e-4
-0.486	-4.690e-5	-2.131e-4
-0.487	-4.672e-5	-2.140e-4
-0.488	-4.655e-5	-2.149e-4
-0.489	-4.637e-5	-2.159e-4
-0.490	-4.620e-5	-2.168e-4
-0.491	-4.603e-5	-2.177e-4
-0.492	-4.587e-5	-2.186e-4
-0.493	-4.570e-5	-2.195e-4
-0.494	-4.554e-5	-2.204e-4
-0.495	-4.538e-5	-2.213e-4
-0.496	-4.523e-5	-2.223e-4
-0.497	-4.507e-5	-2.232e-4
-0.498	-4.492e-5	-2.241e-4
-0.499	-4.476e-5	-2.249e-4
-0.500	-4.461e-5	-2.258e-4
-0.501	-4.446e-5	-2.267e-4
-0.502	-4.431e-5	-2.276e-4
-0.503	-4.417e-5	-2.285e-4
-0.504	-4.403e-5	-2.294e-4
-0.505	-4.388e-5	-2.303e-4
-0.506	-4.374e-5	-2.311e-4
-0.507	-4.360e-5	-2.320e-4
-0.508	-4.347e-5	-2.329e-4
-0.509	-4.333e-5	-2.337e-4
-0.510	-4.320e-5	-2.346e-4
-0.511	-4.306e-5	-2.355e-4
-0.512	-4.293e-5	-2.363e-4
-0.513	-4.280e-5	-2.372e-4
-0.514	-4.268e-5	-2.380e-4
-0.515	-4.255e-5	-2.389e-4
-0.516	-4.242e-5	-2.397e-4
-0.517	-4.230e-5	-2.406e-4
-0.518	-4.218e-5	-2.414e-4
-0.519	-4.206e-5	-2.423e-4
-0.520	-4.194e-5	-2.431e-4
-0.521	-4.182e-5	-2.439e-4
-0.522	-4.170e-5	-2.448e-4
-0.523	-4.158e-5	-2.456e-4
-0.524	-4.147e-5	-2.464e-4
-0.525	-4.135e-5	-2.473e-4
-0.526	-4.124e-5	-2.481e-4
-0.527	-4.113e-5	-2.489e-4
-0.528	-4.102e-5	-2.497e-4
-0.529	-4.091e-5	-2.505e-4
-0.530	-4.080e-5	-2.514e-4
-0.531	-4.069e-5	-2.522e-4
-0.532	-4.059e-5	-2.530e-4
-0.533	-4.048e-5	-2.538e-4
-0.534	-4.038e-5	-2.546e-4
-0.535	-4.028e-5	-2.554e-4
-0.536	-4.017e-5	-2.562e-4
-0.537	-4.007e-5	-2.570e-4
-0.538	-3.997e-5	-2.578e-4
-0.539	-3.987e-5	-2.586e-4
-0.540	-3.978e-5	-2.594e-4
-0.541	-3.968e-5	-2.602e-4
-0.542	-3.958e-5	-2.610e-4
-0.543	-3.949e-5	-2.618e-4
-0.544	-3.939e-5	-2.626e-4
-0.545	-3.930e-5	-2.634e-4
-0.546	-3.921e-5	-2.641e-4
-0.547	-3.912e-5	-2.649e-4
-0.548	-3.903e-5	-2.657e-4
-0.549	-3.894e-5	-2.665e-4
-0.550	-3.885e-5	-2.673e-4
-0.551	-3.876e-5	-2.680e-4
-0.552	-3.867e-5	-2.688e-4
-0.553	-3.859e-5	-2.696e-4
-0.554	-3.850e-5	-2.703e-4
-0.555	-3.841e-5	-2.711e-4
-0.556	-3.833e-5	-2.719e-4
-0.557	-3.825e-5	-2.726e-4
-0.558	-3.816e-5	-2.734e-4
-0.559	-3.808e-5	-2.742e-4
-0.560	-3.800e-5	-2.749e-4
-0.561	-3.792e-5	-2.757e-4
-0.562	-3.784e-5	-2.764e-4
-0.563	-3.776e-5	-2.772e-4
-0.564	-3.768e-5	-2.780e-4
-0.565	-3.760e-5	-2.787e-4
-0.566	-3.753e-5	-2.795e-4
-0.567	-3.745e-5	-2.802e-4
-0.568	-3.737e-5	-2.810e-4
-0.569	-3.730e-5	-2.817e-4
-0.570	-3.723e-5	-2.824e-4
-0.571	-3.715e-5	-2.832e-4
-0.572	-3.708e-5	-2.839e-4
-0.573	-3.701e-5	-2.847e-4
-0.574	-3.693e-5	-2.854e-4
-0.575	-3.686e-5	-2.861e-4
-0.576	-3.679e-5	-2.869e-4
-0.577	-3.672e-5	-2.876e-4
-0.578	-3.665e-5	-2.884e-4
-0.579	-3.658e-5	-2.891e-4
-0.580	-3.651e-5	-2.898e-4
-0.581	-3.644e-5	-2.905e-4
-0.582	-3.638e-5	-2.913e-4
-0.583	-3.631e-5	-2.920e-4
-0.584	-3.624e-5	-2.927e-4
-0.585	-3.618e-5	-2.934e-4
-0.586	-3.611e-5	-2.942e-4
-0.587	-3.604e-5	-2.949e-4
-0.588	-3.598e-5	-2.956e-4
-0.589	-3.592e-5	-2.963e-4
-0.590	-3.585e-5	-2.970e-4
-0.591	-3.579e-5	-2.978e-4
-0.592	-3.573e-5	-2.985e-4
-0.593	-3.567e-5	-2.992e-4
-0.594	-3.560e-5	-2.999e-4
-0.595	-3.554e-5	-3.006e-4
-0.596	-3.548e-5	-3.013e-4
-0.597	-3.542e-5	-3.020e-4
-0.598	-3.536e-5	-3.027e-4
-0.599	-3.530e-5	-3.034e-4
-0.600	-3.518e-5	-7.037e-7
-0.599	-3.506e-5	-1.405e-6
-0.598	-3.495e-5	-2.104e-6
-0.597	-3.485e-5	-2.801e-6
-0.596	-3.476e-5	-3.496e-6
-0.595	-3.469e-5	-4.190e-6
-0.594	-3.462e-5	-4.882e-6
-0.593	-3.454e-5	-5.573e-6
-0.592	-3.447e-5	-6.262e-6
-0.591	-3.440e-5	-6.950e-6
-0.590	-3.433e-5	-7.637e-6
-0.589	-3.427e-5	-8.322e-6
-0.588	-3.420e-5	-9.006e-6
-0.587	-3.414e-5	-9.689e-6
-0.586	-3.407e-5	-1.037e-5
-0.585	-3.401e-5	-1.105e-5
-0.584	-3.394e-5	-1.173e-5
-0.583	-3.388e-5	-1.241e-5
-0.582	-3.382e-5	-1.308e-5
-0.581	-3.376e-5	-1.376e-5
-0.580	-3.370e-5	-1.443e-5
-0.579	-3.364e-5	-1.511e-5
-0.578	-3.358e-5	-1.578e-5
-0.577	-3.352e-5	-1.645e-5
-0.576	-3.346e-5	-1.712e-5
-0.575	-3.340e-5	-1.778e-5
-0.574	-3.334e-5	-1.845e-5
-0.573	-3.329e-5	-1.912e-5
-0.572	-3.323e-5	-1.978e-5
-0.571	-3.317e-5	-2.044e-5
-0.570	-3.312e-5	-2.111e-5
-0.569	-3.306e-5	-2.177e-5
-0.568	-3.300e-5	-2.243e-5
-0.567	-3.295e-5	-2.309e-5
-0.566	-3.289e-5	-2.375e-5
-0.565	-3.284e-5	-2.440e-5
-0.564	-3.279e-5	-2.506e-5
-0.563	-3.273e-5	-2.571e-5
-0.562	-3.268e-5	-2.637e-5
-0.561	-3.263e-5	-2.702e-5
-0.560	-3.258e-5	-2.767e-5
-0.559	-3.252e-5	-2.832e-5
-0.558	-3.247e-5	-2.897e-5
-0.557	-3.242e-5	-2.962e-5
-0.556	-3.237e-5	-3.027e-5
-0.555	-3.232e-5	-3.091e-5
-0.554	-3.227e-5	-3.156e-5
-0.553	-3.222e-5	-3.220e-5
-0.552	-3.217e-5	-3.285e-5
-0.551	-3.212e-5	-3.349e-5
-0.550	-3.207e-5	-3.413e-5
-0.549	-3.202e-5	-3.477e-5
-0.548	-3.197e-5	-3.541e-5
-0.547	-3.192e-5	-3.605e-5
-0.546	-3.187e-5	-3.668e-5
-0.545	-3.182e-5	-3.732e-5
-0.544	-3.177e-5	-3.796e-5
-0.543	-3.173e-5	-3.859e-5
-0.542	-3.168e-5	-3.922e-5
-0.541	-3.163e-5	-3.986e-5
-0.540	-3.158e-5	-4.049e-5
-0.539	-3.154e-5	-4.112e-5
-0.538	-3.149e-5	-4.175e-5
-0.537	-3.144e-5	-4.238e-5
-0.536	-3.139e-5	-4.301e-5
-0.535	-3.135e-5	-4.363e-5
-0.534	-3.130e-5	-4.426e-5
-0.533	-3.125e-5	-4.488e-5
-0.532	-3.121e-5	-4.551e-5
-0.531	-3.116e-5	-4.613e-5
-0.530	-3.111e-5	-4.675e-5
-0.529	-3.107e-5	-4.737e-5
-0.528	-3.102e-5	-4.800e-5
-0.527	-3.098e-5	-4.861e-5
-0.526	-3.093e-5	-4.923e-5
-0.525	-3.089e-5	-4.985e-5
-0.524	-3.084e-5	-5.047e-5
-0.523	-3.079e-5	-5.108e-5
-0.522	-3.075e-5	-5.170e-5
-0.521	-3.070e-5	-5.231e-5
-0.520	-3.065e-5	-5.293e-5
-0.519	-3.061e-5	-5.354e-5
-0.518	-3.056e-5	-5.415e-5
-0.517	-3.052e-5	-5.476e-5
-0.516	-3.047e-5	-5.537e-5
-0.515	-3.042e-5	-5.598e-5
-0.514	-3.038e-5	-5.658e-5
-0.513	-3.033e-5	-5.719e-5
-0.512	-3.029e-5	-5.780e-5
-0.511	-3.024e-5	-5.840e-5
-0.510	-3.019e-5	-5.901e-5
-0.509	-3.015e-5	-5.961e-5
-0.508	-3.010e-5	-6.021e-5
-0.507	-3.005e-5	-6.081e-5
-0.506	-3.000e-5	-6.141e-5
-0.505	-2.996e-5	-6.201e-5
-0.504	-2.991e-5	-6.261e-5
-0.503	-2.986e-5	-6.321e-5
-0.502	-2.981e-5	-6.380e-5
-0.501	-2.976e-5	-6.440e-5
-0.500	-2.972e-5	-6.499e-5
-0.499	-2.967e-5	-6.559e-5
-0.498	-2.962e-5	-6.618e-5
-0.497	-2.957e-5	-6.677e-5
-0.496	-2.952e-5	-6.736e-5
-0.495	-2.947e-5	-6.795e-5
-0.494	-2.942e-5	-6.854e-5
-0.493	-2.937e-5	-6.912e-5
-0.492	-2.931e-5	-6.971e-5
-0.491	-2.926e-5	-7.030e-5
-0.490	-2.921e-5	-7.088e-5
-0.489	-2.915e-5	-7.146e-5
-0.488	-2.910e-5	-7.205e-5
-0.487	-2.905e-5	-7.263e-5
-0.486	-2.899e-5	-7.321e-5
-0.485	-2.893e-5	-7.378e-5
-0.484	-2.888e-5	-7.436e-5
-0.483	-2.882e-5	-7.494e-5
-0.482	-2.876e-5	-7.551e-5
-0.481	-2.870e-5	-7.609e-5
-0.480	-2.864e-5	-7.666e-5
-0.479	-2.858e-5	-7.723e-5
-0.478	-2.852e-5	-7.780e-5
-0.477	-2.846e-5	-7.837e-5
-0.476	-2.839e-5	-7.894e-5
-0.475	-2.833e-5	-7.951e-5
-0.474	-2.826e-5	-8.007e-5
-0.473	-2.820e-5	-8.064e-5
-0.472	-2.813e-5	-8.120e-5
-0.471	-2.806e-5	-8.176e-5
-0.470	-2.799e-5	-8.232e-5
-0.469	-2.792e-5	-8.288e-5
-0.468	-2.784e-5	-8.343e-5
-0.467	-2.777e-5	-8.399e-5
-0.466	-2.769e-5	-8.454e-5
-0.465	-2.761e-5	-8.510e-5
-0.464	-2.753e-5	-8.565e-5
-0.463	-2.745e-5	-8.620e-5
-0.462	-2.737e-5	-8.674e-5
-0.461	-2.728e-5	-8.729e-5
-0.460	-2.720e-5	-8.783e-5
-0.459	-2.711e-5	-8.837e-5
-0.458	-2.702e-5	-8.891e-5
-0.457	-2.692e-5	-8.945e-5
-0.456	-2.683e-5	-8.999e-5
-0.455	-2.673e-5	-9.052e-5
-0.454	-2.663e-5	-9.106e-5
-0.453	-2.652e-5	-9.159e-5
-0.452	-2.642e-5	-9.212e-5
-0.451	-2.631e-5	-9.264e-5
-0.450	-2.620e-5	-9.317e-5
-0.449	-2.609e-5	-9.369e-5
-0.448	-2.597e-5	-9.421e-5
-0.447	-2.585e-5	-9.472e-5
-0.446	-2.573e-5	-9.524e-5
-0.445	-2.560e-5	-9.575e-5
-0.444	-2.547e-5	-9.626e-5
-0.443	-2.533e-5	-9.677e-5
-0.442	-2.520e-5	-9.727e-5
-0.441	-2.505e-5	-9.777e-5
-0.440	-2.491e-5	-9.827e-5
-0.439	-2.476e-5	-9.876e-5
-0.438	-2.461e-5	-9.926e-5
-0.437	-2.445e-5	-9.975e-5
-0.436	-2.429e-5	-1.002e-4
-0.435	-2.412e-5	-1.007e-4
-0.434	-2.394e-5	-1.012e-4
-0.433	-2.377e-5	-1.017e-4
-0.432	-2.358e-5	-1.021e-4
-0.431	-2.339e-5	-1.026e-4
-0.430	-2.320e-5	-1.031e-4
-0.429	-2.300e-5	-1.035e-4
-0.428	-2.279e-5	-1.040e-4
-0.427	-2.258e-5	-1.044e-4
-0.426	-2.236e-5	-1.049e-4
-0.425	-2.213e-5	-1.053e-4
-0.424	-2.190e-5	-1.058e-4
-0.423	-2.166e-5	-1.062e-4
-0.422	-2.141e-5	-1.066e-4
-0.421	-2.115e-5	-1.071e-4
-0.420	-2.089e-5	-1.075e-4
-0.419	-2.062e-5	-1.079e-4
-0.418	-2.034e-5	-1.083e-4
-0.417	-2.005e-5	-1.087e-4
-0.416	-1.975e-5	-1.091e-4
-0.415	-1.944e-5	-1.095e-4
-0.414	-1.912e-5	-1.099e-4
-0.413	-1.880e-5	-1.102e-4
-0.412	-1.846e-5	-1.106e-4
-0.411	-1.811e-5	-1.110e-4
-0.410	-1.775e-5	-1.113e-4
-0.409	-1.738e-5	-1.117e-4
-0.408	-1.700e-5	-1.120e-4
-0.407	-1.661e-5	-1.123e-4
-0.406	-1.620e-5	-1.127e-4
-0.405	-1.578e-5	-1.130e-4
-0.404	-1.535e-5	-1.133e-4
-0.403	-1.491e-5	-1.136e-4
-0.402	-1.445e-5	-1.139e-4
-0.401	-1.398e-5	-1.142e-4
-0.400	-1.350e-5	-1.144e-4
-0.399	-1.300e-5	-1.147e-4
-0.398	-1.249e-5	-1.149e-4
-0.397	-1.196e-5	-1.152e-4
-0.396	-1.142e-5	-1.154e-4
-0.395	-1.086e-5	-1.156e-4
-0.394	-1.029e-5	-1.158e-4
-0.393	-9.706e-6	-1.160e-4
-0.392	-9.101e-6	-1.162e-4
-0.391	-8.480e-6	-1.164e-4
-0.390	-7.844e-6	-1.165e-4
-0.389	-7.192e-6	-1.167e-4
-0.388	-6.525e-6	-1.168e-4
-0.387	-5.843e-6	-1.169e-4
-0.386	-5.143e-6	-1.170e-4
-0.385	-4.426e-6	-1.171e-4
-0.384	-3.692e-6	-1.172e-4
-0.383	-2.941e-6	-1.172e-4
-0.382	-2.176e-6	-1.173e-4
-0.381	-1.397e-6	-1.173e-4
-0.380	-6.047e-7	-1.173e-4
-0.379	2.042e-7	-1.173e-4
-0.378	1.030e-6	-1.173e-4
-0.377	1.871e-6	-1.173e-4
-0.376	2.727e-6	-1.172e-4
-0.375	3.594e-6	-1.171e-4
-0.374	4.472e-6	-1.170e-4
-0.373	5.364e-6	-1.169e-4
-0.372	6.267e-6	-1.168e-4
-0.371	7.181e-6	-1.167e-4
-0.370	8.105e-6	-1.165e-4
-0.369	9.036e-6	-1.163e-4
-0.368	9.974e-6	-1.161e-4
-0.367	1.092e-5	-1.159e-4
-0.366	1.187e-5	-1.157e-4
-0.365	1.283e-5	-1.154e-4
-0.364	1.380e-5	-1.151e-4
-0.363	1.477e-5	-1.148e-4
-0.362	1.573e-5	-1.145e-4
-0.361	1.670e-5	-1.142e-4
-0.360	1.767e-5	-1.138e-4
-0.359	1.863e-5	-1.135e-4
-0.358	1.960e-5	-1.131e-4
-0.357	2.056e-5	-1.127e-4
-0.356	2.151e-5	-1.122e-4
-0.355	2.246e-5	-1.118e-4
-0.354	2.340e-5	-1.113e-4
-0.353	2.432e-5	-1.108e-4
-0.352	2.524e-5	-1.103e-4
-0.351	2.615e-5	-1.098e-4
-0.350	2.704e-5	-1.093e-4
-0.349	2.792e-5	-1.087e-4
-0.348	2.877e-5	-1.081e-4
-0.347	2.962e-5	-1.075e-4
-0.346	3.045e-5	-1.069e-4
-0.345	3.126e-5	-1.063e-4
-0.344	3.206e-5	-1.057e-4
-0.343	3.283e-5	-1.050e-4
-0.342	3.357e-5	-1.043e-4
-0.341	3.430e-5	-1.036e-4
-0.340	3.500e-5	-1.029e-4
-0.339	3.569e-5	-1.022e-4
-0.338	3.635e-5	-1.015e-4
-0.337	3.698e-5	-1.008e-4
-0.336	3.759e-5	-1.000e-4
-0.335	3.818e-5	-9.925e-5
-0.334	3.874e-5	-9.848e-5
-0.333	3.928e-5	-9.769e-5
-0.332	3.979e-5	-9.689e-5
-0.331	4.028e-5	-9.609e-5
-0.330	4.074e-5	-9.527e-5
-0.329	4.118e-5	-9.445e-5
-0.328	4.159e-5	-9.362e-5
-0.327	4.197e-5	-9.278e-5
-0.326	4.233e-5	-9.193e-5
-0.325	4.267e-5	-9.108e-5
-0.324	4.299e-5	-9.022e-5
-0.323	4.327e-5	-8.935e-5
-0.322	4.354e-5	-8.848e-5
-0.321	4.378e-5	-8.761e-5
-0.320	4.401e-5	-8.673e-5
-0.319	4.420e-5	-8.584e-5
-0.318	4.438e-5	-8.496e-5
-0.317	4.454e-5	-8.407e-5
-0.316	4.467e-5	-8.317e-5
-0.315	4.479e-5	-8.228e-5
-0.314	4.488e-5	-8.138e-5
-0.313	4.496e-5	-8.048e-5
-0.312	4.503e-5	-7.958e-5
-0.311	4.507e-5	-7.868e-5
-0.310	4.510e-5	-7.778e-5
-0.309	4.512e-5	-7.687e-5
-0.308	4.512e-5	-7.597e-5
-0.307	4.511e-5	-7.507e-5
-0.306	4.508e-5	-7.417e-5
-0.305	4.504e-5	-7.327e-5
-0.304	4.498e-5	-7.237e-5
-0.303	4.491e-5	-7.147e-5
-0.302	4.483e-5	-7.057e-5
-0.301	4.474e-5	-6.968e-5
-0.300	4.465e-5	-6.878e-5
-0.299	4.454e-5	-6.789e-5
-0.298	4.442e-5	-6.700e-5
-0.297	4.430e-5	-6.612e-5
-0.296	4.416e-5	-6.524e-5
-0.295	4.403e-5	-6.435e-5
-0.294	4.388e-5	-6.348e-5
-0.293	4.373e-5	-6.260e-5
-0.292	4.358e-5	-6.173e-5
-0.291	4.342e-5	-6.086e-5
-0.290	4.325e-5	-6.000e-5
-0.289	4.308e-5	-5.914e-5
-0.288	4.291e-5	-5.828e-5
-0.287	4.274e-5	-5.742e-5
-0.286	4.256e-5	-5.657e-5
-0.285	4.238e-5	-5.572e-5
-0.284	4.220e-5	-5.488e-5
-0.283	4.201e-5	-5.404e-5
-0.282	4.183e-5	-5.320e-5
-0.281	4.164e-5	-5.237e-5
-0.280	4.145e-5	-5.154e-5
-0.279	4.127e-5	-5.072e-5
-0.278	4.108e-5	-4.989e-5
-0.277	4.089e-5	-4.908e-5
-0.276	4.070e-5	-4.826e-5
-0.275	4.051e-5	-4.745e-5
-0.274	4.032e-5	-4.665e-5
-0.273	4.013e-5	-4.584e-5
-0.272	3.994e-5	-4.504e-5
-0.271	3.976e-5	-4.425e-5
-0.270	3.957e-5	-4.346e-5
-0.269	3.939e-5	-4.267e-5
-0.268	3.920e-5	-4.189e-5
-0.267	3.902e-5	-4.111e-5
-0.266	3.883e-5	-4.033e-5
-0.265	3.865e-5	-3.956e-5
-0.264	3.847e-5	-3.879e-5
-0.263	3.829e-5	-3.802e-5
-0.262	3.811e-5	-3.726e-5
-0.261	3.794e-5	-3.650e-5
-0.260	3.776e-5	-3.575e-5
-0.259	3.758e-5	-3.499e-5
-0.258	3.741e-5	-3.425e-5
-0.257	3.724e-5	-3.350e-5
-0.256	3.706e-5	-3.276e-5
-0.255	3.689e-5	-3.202e-5
-0.254	3.672e-5	-3.129e-5
-0.253	3.655e-5	-3.056e-5
-0.252	3.638e-5	-2.983e-5
-0.251	3.622e-5	-2.910e-5
-0.250	3.605e-5	-2.838e-5
-0.249	3.588e-5	-2.767e-5
-0.248	3.572e-5	-2.695e-5
-0.247	3.555e-5	-2.624e-5
-0.246	3.539e-5	-2.553e-5
-0.245	3.523e-5	-2.483e-5
-0.244	3.506e-5	-2.413e-5
-0.243	3.490e-5	-2.343e-5
-0.242	3.474e-5	-2.273e-5
-0.241	3.457e-5	-2.204e-5
-0.240	3.441e-5	-2.135e-5
-0.239	3.425e-5	-2.067e-5
-0.238	3.409e-5	-1.999e-5
-0.237	3.393e-5	-1.931e-5
-0.236	3.376e-5	-1.863e-5
-0.235	3.360e-5	-1.796e-5
-0.234	3.344e-5	-1.729e-5
-0.233	3.328e-5	-1.663e-5
-0.232	3.311e-5	-1.596e-5
-0.231	3.295e-5	-1.531e-5
-0.230	3.279e-5	-1.465e-5
-0.229	3.262e-5	-1.400e-5
-0.228	3.246e-5	-1.335e-5
-0.227	3.230e-5	-1.270e-5
-0.226	3.213e-5	-1.206e-5
-0.225	3.197e-5	-1.142e-5
-0.224	3.180e-5	-1.078e-5
-0.223	3.164e-5	-1.015e-5
-0.222	3.147e-5	-9.522e-6
-0.221	3.131e-5	-8.896e-6
-0.220	3.114e-5	-8.273e-6
-0.219	3.097e-5	-7.654e-6
-0.218	3.081e-5	-7.038e-6
-0.217	3.064e-5	-6.425e-6
-0.216	3.047e-5	-5.815e-6
-0.215	3.031e-5	-5.209e-6
-0.214	3.014e-5	-4.606e-6
-0.213	2.997e-5	-4.007e-6
-0.212	2.980e-5	-3.411e-6
-0.211	2.964e-5	-2.818e-6
-0.210	2.947e-5	-2.229e-6
-0.209	2.930e-5	-1.643e-6
-0.208	2.913e-5	-1.060e-6
-0.207	2.896e-5	-4.809e-7
-0.206	2.880e-5	9.502e-8
-0.205	2.863e-5	6.676e-7
-0.204	2.846e-5	1.237e-6
-0.203	2.830e-5	1.803e-6
-0.202	2.813e-5	2.366e-6
-0.201	2.797e-5	2.925e-6
-0.200	2.780e-5	3.481e-6
-0.199	2.764e-5	4.034e-6
-0.198	2.747e-5	4.583e-6
-0.197	2.731e-5	5.129e-6
-0.196	2.715e-5	5.672e-6
-0.195	2.698e-5	6.212e-6
-0.194	2.682e-5	6.748e-6
-0.193	2.666e-5	7.281e-6
-0.192	2.650e-5	7.811e-6
-0.191	2.634e-5	8.338e-6
-0.190	2.618e-5	8.862e-6
-0.189	2.602e-5	9.382e-6
-0.188	2.586e-5	9.900e-6
-0.187	2.571e-5	1.041e-5
-0.186	2.555e-5	1.092e-5
-0.185	2.540e-5	1.143e-5
-0.184	2.524e-5	1.194e-5
-0.183	2.509e-5	1.244e-5
-0.182	2.494e-5	1.294e-5
-0.181	2.479e-5	1.343e-5
-0.180	2.464e-5	1.393e-5
-0.179	2.449e-5	1.442e-5
-0.178	2.434e-5	1.490e-5
-0.177	2.419e-5	1.539e-5
-0.176	2.404e-5	1.587e-5
-0.175	2.390e-5	1.635e-5
-0.174	2.376e-5	1.682e-5
-0.173	2.361e-5	1.729e-5
-0.172	2.347e-5	1.776e-5
-0.171	2.333e-5	1.823e-5
-0.170	2.319e-5	1.869e-5
-0.169	2.305e-5	1.915e-5
-0.168	2.291e-5	1.961e-5
-0.167	2.278e-5	2.007e-5
-0.166	2.264e-5	2.052e-5
-0.165	2.251e-5	2.097e-5
-0.164	2.237e-5	2.142e-5
-0.163	2.224e-5	2.186e-5
-0.162	2.211e-5	2.231e-5
-0.161	2.198e-5	2.274e-5
-0.160	2.185e-5	2.318e-5
-0.159	2.173e-5	2.362e-5
-0.158	2.160e-5	2.405e-5
-0.157	2.147e-5	2.448e-5
-0.156	2.135e-5	2.490e-5
-0.155	2.123e-5	2.533e-5
-0.154	2.111e-5	2.575e-5
-0.153	2.099e-5	2.617e-5
-0.152	2.087e-5	2.659e-5
-0.151	2.075e-5	2.700e-5
-0.150	2.063e-5	2.742e-5
-0.149	2.052e-5	2.783e-5
-0.148	2.040e-5	2.823e-5
-0.147	2.029e-5	2.864e-5
-0.146	2.018e-5	2.904e-5
-0.145	2.007e-5	2.945e-5
-0.144	1.996e-5	2.984e-5
-0.143	1.985e-5	3.024e-5
-0.142	1.974e-5	3.064e-5
-0.141	1.964e-5	3.103e-5
-0.140	1.953e-5	3.142e-5
-0.139	1.943e-5	3.181e-5
-0.138	1.933e-5	3.220e-5
-0.137	1.923e-5	3.258e-5
-0.136	1.913e-5	3.296e-5
-0.135	1.904e-5	3.334e-5
-0.134	1.894e-5	3.372e-5
-0.133	1.884e-5	3.410e-5
-0.132	1.875e-5	3.447e-5
-0.131	1.866e-5	3.485e-5
-0.130	1.857e-5	3.522e-5
-0.129	1.848e-5	3.559e-5
-0.128	1.839e-5	3.596e-5
-0.127	1.830e-5	3.632e-5
-0.126	1.822e-5	3.669e-5
-0.125	1.814e-5	3.705e-5
-0.124	1.805e-5	3.741e-5
-0.123	1.797e-5	3.777e-5
-0.122	1.789e-5	3.813e-5
-0.121	1.781e-5	3.848e-5
-0.120	1.773e-5	3.884e-5
-0.119	1.766e-5	3.919e-5
-0.118	1.758e-5	3.954e-5
-0.117	1.751e-5	3.989e-5
-0.116	1.744e-5	4.024e-5
-0.115	1.737e-5	4.059e-5
-0.114	1.729e-5	4.094e-5
-0.113	1.722e-5	4.128e-5
-0.112	1.715e-5	4.162e-5
-0.111	1.709e-5	4.196e-5
-0.110	1.702e-5	4.230e-5
-0.109	1.695e-5	4.264e-5
-0.108	1.688e-5	4.298e-5
-0.107	1.682e-5	4.332e-5
-0.106	1.675e-5	4.365e-5
-0.105	1.669e-5	4.399e-5
-0.104	1.662e-5	4.432e-5
-0.103	1.656e-5	4.465e-5
-0.102	1.649e-5	4.498e-5
-0.101	1.643e-5	4.531e-5
-0.100	1.636e-5	4.564e-5
-0.099	1.630e-5	4.596e-5
-0.098	1.623e-5	4.629e-5
-0.097	1.616e-5	4.661e-5
-0.096	1.610e-5	4.693e-5
-0.095	1.603e-5	4.725e-5
-0.094	1.597e-5	4.757e-5
-0.093	1.590e-5	4.789e-5
-0.092	1.583e-5	4.821e-5
-0.091	1.577e-5	4.852e-5
-0.090	1.570e-5	4.884e-5
-0.089	1.563e-5	4.915e-5
-0.088	1.556e-5	4.946e-5
-0.087	1.549e-5	4.977e-5
-0.086	1.543e-5	5.008e-5
-0.085	1.536e-5	5.038e-5
-0.084	1.529e-5	5.069e-5
-0.083	1.522e-5	5.099e-5
-0.082	1.515e-5	5.130e-5
-0.081	1.508e-5	5.160e-5
-0.080	1.502e-5	5.190e-5
-0.079	1.495e-5	5.220e-5
-0.078	1.488e-5	5.250e-5
-0.077	1.481e-5	5.279e-5
-0.076	1.474e-5	5.309e-5
-0.075	1.467e-5	5.338e-5
-0.074	1.461e-5	5.367e-5
-0.073	1.454e-5	5.396e-5
-0.072	1.447e-5	5.425e-5
-0.071	1.441e-5	5.454e-5
-0.070	1.434e-5	5.483e-5
-0.069	1.427e-5	5.511e-5
-0.068	1.421e-5	5.540e-5
-0.067	1.414e-5	5.568e-5
-0.066	1.408e-5	5.596e-5
-0.065	1.401e-5	5.624e-5
-0.064	1.395e-5	5.652e-5
-0.063	1.389e-5	5.680e-5
-0.062	1.382e-5	5.708e-5
-0.061	1.376e-5	5.735e-5
-0.060	1.370e-5	5.763e-5
-0.059	1.364e-5	5.790e-5
-0.058	1.358e-5	5.817e-5
-0.057	1.352e-5	5.844e-5
-0.056	1.346e-5	5.871e-5
-0.055	1.340e-5	5.898e-5
-0.054	1.334e-5	5.924e-5
-0.053	1.328e-5	5.951e-5
-0.052	1.322e-5	5.977e-5
-0.051	1.316e-5	6.004e-5
-0.050	1.310e-5	6.030e-5
-0.049	1.305e-5	6.056e-5
-0.048	1.299e-5	6.082e-5
-0.047	1.293e-5	6.108e-5
-0.046	1.288e-5	6.134e-5
-0.045	1.282e-5	6.159e-5
-0.044	1.277e-5	6.185e-5
-0.043	1.272e-5	6.210e-5
-0.042	1.266e-5	6.235e-5
-0.041	1.261e-5	6.261e-5
-0.040	1.255e-5	6.286e-5
-0.039	1.250e-5	6.311e-5
-0.038	1.245e-5	6.336e-5
-0.037	1.240e-5	6.361e-5
-0.036	1.235e-5	6.385e-5
-0.035	1.229e-5	6.410e-5
-0.034	1.224e-5	6.434e-5
-0.033	1.219e-5	6.459e-5
-0.032	1.214e-5	6.483e-5
-0.031	1.209e-5	6.507e-5
-0.030	1.205e-5	6.531e-5
-0.029	1.200e-5	6.555e-5
-0.028	1.195e-5	6.579e-5
-0.027	1.190e-5	6.603e-5
-0.026	1.185e-5	6.627e-5
-0.025	1.181e-5	6.650e-5
-0.024	1.176e-5	6.674e-5
-0.023	1.171e-5	6.697e-5
-0.022	1.167e-5	6.721e-5
-0.021	1.162e-5	6.744e-5
-0.020	1.157e-5	6.767e-5
-0.019	1.153e-5	6.790e-5
-0.018	1.148e-5	6.813e-5
-0.017	1.144e-5	6.836e-5
-0.016	1.140e-5	6.859e-5
-0.015	1.135e-5	6.881e-5
-0.014	1.131e-5	6.904e-5
-0.013	1.127e-5	6.926e-5
-0.012	1.122e-5	6.949e-5
-0.011	1.118e-5	6.971e-5
-0.010	1.114e-5	6.994e-5
-0.009	1.110e-5	7.016e-5
-0.008	1.105e-5	7.038e-5
-0.007	1.101e-5	7.060e-5
-0.006	1.097e-5	7.082e-5
-0.005	1.093e-5	7.104e-5
-0.004	1.089e-5	7.125e-5
-0.003	1.085e-5	7.147e-5
-0.002	1.081e-5	7.169e-5
-0.001	1.077e-5	7.190e-5
